tiempo,EMG,Integrated EMG,,,,
0,0.0779495,0.000779495,,,N,30286
0.000999967,0.0774748,0.00155424,,,t,30.285
0.001999934,0.0831743,0.00238599,,,t/N,0.000999967
0.002999901,0.085601,0.003242,,,,
0.003999868,0.0895819,0.00413782,,,,
0.004999835,0.094047,0.00507829,,,,
0.005999802,0.0894507,0.00597279,,,,
0.006999769,0.0787605,0.0067604,,,,
0.007999736,0.0680299,0.0074407,,,,
0.008999703,0.0624483,0.00806518,,,,
0.00999967,0.0665725,0.00873091,,,,
0.010999637,0.0754034,0.00948494,,,,
0.011999604,0.0800138,0.0102851,,,,
0.012999571,0.0778665,0.0110637,,,,
0.013999538,0.0735084,0.0117988,,,,
0.014999505,0.0694382,0.0124932,,,,
0.015999472,0.0664781,0.013158,,,,
0.016999439,0.0696619,0.0138546,,,,
0.017999406,0.0783536,0.0146381,,,,
0.018999373,0.0854928,0.0154931,,,,
0.01999934,0.0890415,0.0163835,,,,
0.020999307,0.0908703,0.0172922,,,,
0.021999274,0.0902678,0.0181949,,,,
0.022999241,0.0851738,0.0190466,,,,
0.023999208,0.0812949,0.0198596,,,,
0.024999175,0.0873197,0.0207328,,,,
0.025999142,0.0931961,0.0216647,,,,
0.026999108,0.0858019,0.0225227,,,,
0.027999075,0.077363,0.0232964,,,,
0.028999042,0.0795057,0.0240914,,,,
0.029999009,0.0850633,0.0249421,,,,
0.030998976,0.09039,0.025846,,,,
0.031998943,0.0939676,0.0267856,,,,
0.03299891,0.0876415,0.027662,,,,
0.033998877,0.0725536,0.0283876,,,,
0.034998844,0.0592714,0.0289803,,,,
0.035998811,0.0513494,0.0294938,,,,
0.036998778,0.0450721,0.0299445,,,,
0.037998745,0.0490262,0.0304348,,,,
0.038998712,0.0799256,0.031234,,,,
0.039998679,0.115235,0.0323864,,,,
0.040998646,0.114621,0.0335326,,,,
0.041998613,0.0902679,0.0344353,,,,
0.04299858,0.0766408,0.0352017,,,,
0.043998547,0.0789754,0.0359914,,,,
0.044998514,0.0863991,0.0368554,,,,
0.045998481,0.0887804,0.0377432,,,,
0.046998448,0.0843872,0.0385871,,,,
0.047998415,0.0795496,0.0393826,,,,
0.048998382,0.0777386,0.04016,,,,
0.049998349,0.080475,0.0409647,,,,
0.050998316,0.0899347,0.0418641,,,,
0.051998283,0.0973928,0.042838,,,,
0.05299825,0.0942743,0.0437807,,,,
0.053998217,0.0898641,0.0446794,,,,
0.054998184,0.0889074,0.0455685,,,,
0.055998151,0.085341,0.0464219,,,,
0.056998118,0.0825242,0.0472471,,,,
0.057998085,0.0863935,0.048111,,,,
0.058998052,0.0934945,0.049046,,,,
0.059998019,0.0951598,0.0499976,,,,
0.060997986,0.0868457,0.050866,,,,
0.061997953,0.0762246,0.0516283,,,,
0.06299792,0.0764738,0.052393,,,,
0.063997887,0.086669,0.0532597,,,,
0.064997854,0.0924261,0.054184,,,,
0.065997821,0.0896131,0.0550801,,,,
0.066997788,0.0865855,0.055946,,,,
0.067997755,0.0865695,0.0568117,,,,
0.068997722,0.0871036,0.0576827,,,,
0.069997689,0.0885657,0.0585684,,,,
0.070997656,0.092024,0.0594886,,,,
0.071997623,0.0943843,0.0604324,,,,
0.07299759,0.0915426,0.0613479,,,,
0.073997557,0.0848941,0.0621968,,,,
0.074997524,0.0799153,0.062996,,,,
0.075997491,0.0799718,0.0637957,,,,
0.076997458,0.0847002,0.0646427,,,,
0.077997425,0.0902067,0.0655447,,,,
0.078997392,0.0928164,0.0664729,,,,
0.079997359,0.0921427,0.0673943,,,,
0.080997325,0.0886452,0.0682808,,,,
0.081997292,0.0852336,0.0691331,,,,
0.082997259,0.0864087,0.0699972,,,,
0.083997226,0.091099,0.0709082,,,,
0.084997193,0.094281,0.071851,,,,
0.08599716,0.0941615,0.0727926,,,,
0.086997127,0.0899516,0.0736921,,,,
0.087997094,0.0818565,0.0745107,,,,
0.088997061,0.0769864,0.0752806,,,,
0.089997028,0.0800963,0.0760815,,,,
0.090996995,0.0859465,0.076941,,,,
0.091996962,0.0903781,0.0778448,,,,
0.092996929,0.0911011,0.0787558,,,,
0.093996896,0.0848621,0.0796044,,,,
0.094996863,0.0797282,0.0804017,,,,
0.09599683,0.0847867,0.0812496,,,,
0.096996797,0.0921958,0.0821715,,,,
0.097996764,0.0940897,0.0831124,,,,
0.098996731,0.0927519,0.0840399,,,,
0.099996698,0.0885431,0.0841459,,,,
0.100996665,0.0809434,0.0841806,,,,
0.101996632,0.0793643,0.0841425,,,,
0.102996599,0.0923568,0.08421,,,,
0.103996566,0.103635,0.0843505,,,,
0.104996533,0.0922968,0.084333,,,,
0.1059965,0.0751984,0.0841905,,,,
0.106996467,0.0791188,0.0841941,,,,
0.107996434,0.0912953,0.0844268,,,,
0.108996401,0.0948664,0.0847509,,,,
0.109996368,0.0961703,0.0850469,,,,
0.110996335,0.09088,0.0852017,,,,
0.111996302,0.0815245,0.0852168,,,,
0.112996269,0.086154,0.0852997,,,,
0.113996236,0.0940903,0.0855055,,,,
0.114996203,0.091018,0.0857213,,,,
0.11599617,0.0893705,0.0859502,,,,
0.116996137,0.0896382,0.08615,,,,
0.117996104,0.0831325,0.0861978,,,,
0.118996071,0.0780385,0.0861232,,,,
0.119996038,0.0786273,0.0860191,,,,
0.120996005,0.0794991,0.0859054,,,,
0.121995972,0.080541,0.0858081,,,,
0.122995939,0.0843613,0.0858,,,,
0.123995906,0.0887422,0.0858744,,,,
0.124995873,0.087647,0.0858777,,,,
0.12599584,0.0816963,0.0857627,,,,
0.126995807,0.0779231,0.0856839,,,,
0.127995774,0.0779151,0.0856894,,,,
0.128995741,0.079598,0.0856904,,,,
0.129995708,0.0811985,0.0856517,,,,
0.130995675,0.0808233,0.0855561,,,,
0.131995642,0.0829453,0.0854458,,,,
0.132995609,0.0880012,0.0854494,,,,
0.133995576,0.085822,0.0855821,,,,
0.134995542,0.0805041,0.0857944,,,,
0.135995509,0.0868771,0.0861497,,,,
0.136995476,0.100755,0.0867065,,,,
0.137995443,0.105357,0.0872699,,,,
0.13899541,0.0950998,0.0874216,,,,
0.139995377,0.0782065,0.0870513,,,,
0.140995344,0.0671613,0.0865767,,,,
0.141995311,0.0714657,0.0863887,,,,
0.142995278,0.0871359,0.0864936,,,,
0.143995245,0.0951634,0.0866555,,,,
0.144995212,0.0893474,0.086685,,,,
0.145995179,0.0848492,0.0866457,,,,
0.146995146,0.0836017,0.0866378,,,,
0.147995113,0.0782588,0.0866249,,,,
0.14899508,0.0794393,0.0866419,,,,
0.149995047,0.0905652,0.0867428,,,,
0.150995014,0.0938532,0.086782,,,,
0.151994981,0.0823866,0.086632,,,,
0.152994948,0.069536,0.0863846,,,,
0.153994915,0.0685035,0.086171,,,,
0.154994882,0.0787805,0.0860697,,,,
0.155994849,0.0892897,0.0861092,,,,
0.156994816,0.0934771,0.0862187,,,,
0.157994783,0.0925263,0.08628,,,,
0.15899475,0.0870673,0.0862158,,,,
0.159994717,0.0795378,0.0860596,,,,
0.160994684,0.0756427,0.0859475,,,,
0.161994651,0.0782283,0.0859676,,,,
0.162994618,0.0831103,0.0860339,,,,
0.163994585,0.0855089,0.0860223,,,,
0.164994552,0.085842,0.0859565,,,,
0.165994519,0.0824266,0.0858846,,,,
0.166994486,0.0780021,0.0857988,,,,
0.167994453,0.0805884,0.085739,,,,
0.16899442,0.0850578,0.0857185,,,,
0.169994387,0.0851601,0.0856845,,,,
0.170994354,0.0844342,0.0856086,,,,
0.171994321,0.0825711,0.0854904,,,,
0.172994288,0.0809387,0.0853844,,,,
0.173994255,0.0815543,0.085351,,,,
0.174994222,0.0807284,0.0853591,,,,
0.175994189,0.0828837,0.0853882,,,,
0.176994156,0.0898026,0.0854393,,,,
0.177994123,0.0908303,0.0854455,,,,
0.17899409,0.0844531,0.0853619,,,,
0.179994057,0.0782602,0.085223,,,,
0.180994024,0.0767148,0.0851037,,,,
0.181993991,0.0801495,0.0850529,,,,
0.182993958,0.0843004,0.0850318,,,,
0.183993925,0.0854719,0.0849755,,,,
0.184993892,0.0838849,0.0848716,,,,
0.185993859,0.0818092,0.0847481,,,,
0.186993826,0.0815038,0.0846636,,,,
0.187993793,0.0834303,0.0846793,,,,
0.188993759,0.0843961,0.0847534,,,,
0.189993726,0.0808147,0.0847606,,,,
0.190993693,0.0764872,0.084666,,,,
0.19199366,0.0758675,0.0845209,,,,
0.192993627,0.0760809,0.0843707,,,,
0.193993594,0.0759256,0.0842813,,,,
0.194993561,0.0781617,0.0842657,,,,
0.195993528,0.0827536,0.0842453,,,,
0.196993495,0.0871858,0.0841952,,,,
0.197993462,0.087662,0.084131,,,,
0.198993429,0.0818526,0.084022,,,,
0.199993396,0.0752299,0.0838888,,,,
0.200993363,0.0771535,0.0838509,,,,
0.20199333,0.0864205,0.0839215,,,,
0.202993297,0.0902346,0.0839003,,,,
0.203993264,0.084126,0.0837052,,,,
0.204993231,0.0780614,0.0835628,,,,
0.205993198,0.0793018,0.0836039,,,,
0.206993165,0.0860531,0.0836732,,,,
0.207993132,0.0938046,0.0836983,,,,
0.208993099,0.0993599,0.0837432,,,,
0.209993066,0.1012,0.0837935,,,,
0.210993033,0.0963191,0.0838479,,,,
0.211993,0.0841033,0.0838737,,,,
0.212992967,0.0736259,0.0837484,,,,
0.213992934,0.0744652,0.0835522,,,,
0.214992901,0.0818146,0.0834602,,,,
0.215992868,0.0847536,0.083414,,,,
0.216992835,0.0830192,0.0833478,,,,
0.217992802,0.0821137,0.0833376,,,,
0.218992769,0.082999,0.0833872,,,,
0.219992736,0.084162,0.0834426,,,,
0.220992703,0.0837368,0.0834849,,,,
0.22199267,0.0783717,0.0834632,,,,
0.222992637,0.0698853,0.0833185,,,,
0.223992604,0.0669178,0.0831002,,,,
0.224992571,0.0707168,0.0829309,,,,
0.225992538,0.0751948,0.0828659,,,,
0.226992505,0.0790568,0.0828773,,,,
0.227992472,0.0840669,0.0829388,,,,
0.228992439,0.0894497,0.0830373,,,,
0.229992406,0.0904736,0.08313,,,,
0.230992373,0.0863931,0.0831857,,,,
0.23199234,0.0830217,0.0831865,,,,
0.232992307,0.0802109,0.0831086,,,,
0.233992274,0.0789178,0.0830396,,,,
0.234992241,0.0844403,0.0830789,,,,
0.235992208,0.0894231,0.0831044,,,,
0.236992175,0.0892466,0.0829893,,,,
0.237992142,0.089896,0.0828347,,,,
0.238992109,0.0868122,0.0827518,,,,
0.239992076,0.0800038,0.0827698,,,,
0.240992043,0.081629,0.0829145,,,,
0.24199201,0.0859364,0.0830592,,,,
0.242991976,0.07749,0.0829627,,,,
0.243991943,0.0633675,0.0826447,,,,
0.24499191,0.0586682,0.082338,,,,
0.245991877,0.063947,0.0821289,,,,
0.246991844,0.074147,0.0820344,,,,
0.247991811,0.0815458,0.0820673,,,,
0.248991778,0.0832613,0.0821055,,,,
0.249991745,0.0821016,0.0820208,,,,
0.250991712,0.0738549,0.0818209,,,,
0.251991679,0.0690493,0.0816875,,,,
0.252991646,0.0809191,0.0818013,,,,
0.253991613,0.0900254,0.0820165,,,,
0.25499158,0.0829113,0.0820578,,,,
0.255991547,0.0733216,0.0818982,,,,
0.256991514,0.0697976,0.0816614,,,,
0.257991481,0.0716315,0.0814524,,,,
0.258991448,0.0761087,0.0813428,,,,
0.259991415,0.0795093,0.0813425,,,,
0.260991382,0.0828366,0.0814145,,,,
0.261991349,0.0870297,0.0815025,,,,
0.262991316,0.0861123,0.0815325,,,,
0.263991283,0.0770063,0.0814475,,,,
0.26499125,0.0669303,0.0812584,,,,
0.265991217,0.0643575,0.0810777,,,,
0.266991184,0.0723364,0.081021,,,,
0.267991151,0.0827966,0.0810431,,,,
0.268991118,0.083538,0.0810279,,,,
0.269991085,0.0764065,0.0809404,,,,
0.270991052,0.0688864,0.0807849,,,,
0.271991019,0.0646913,0.0806061,,,,
0.272990986,0.0691851,0.0804886,,,,
0.273990953,0.0794772,0.0804678,,,,
0.27499092,0.0862999,0.0805235,,,,
0.275990887,0.0871566,0.0805662,,,,
0.276990854,0.079312,0.0804613,,,,
0.277990821,0.0689159,0.0802422,,,,
0.278990788,0.071208,0.0801097,,,,
0.279990755,0.0802362,0.0801295,,,,
0.280990722,0.0818577,0.0801809,,,,
0.281990689,0.0793728,0.0801732,,,,
0.282990656,0.0772224,0.0801024,,,,
0.283990623,0.0730296,0.079978,,,,
0.28499059,0.0703387,0.0798425,,,,
0.285990557,0.0740932,0.0797653,,,,
0.286990524,0.0789056,0.0797394,,,,
0.287990491,0.079549,0.0797005,,,,
0.288990458,0.0799912,0.0796565,,,,
0.289990425,0.0798238,0.0796466,,,,
0.290990392,0.0743621,0.0796253,,,,
0.291990359,0.0707219,0.0795739,,,,
0.292990326,0.0756859,0.0795699,,,,
0.293990293,0.0810264,0.0796209,,,,
0.29499026,0.0812527,0.0796518,,,,
0.295990227,0.0790242,0.0796146,,,,
0.296990193,0.0743857,0.0794866,,,,
0.29799016,0.0705239,0.0793152,,,,
0.298990127,0.0732759,0.0792294,,,,
0.299990094,0.0801531,0.0792786,,,,
0.300990061,0.0838085,0.0793452,,,,
0.301990028,0.0805506,0.0792865,,,,
0.302989995,0.0734802,0.0791189,,,,
0.303989962,0.0708137,0.0789858,,,,
0.304989929,0.0765303,0.0789705,,,,
0.305989896,0.0874717,0.0790522,,,,
0.306989863,0.092738,0.0791191,,,,
0.30798983,0.0802448,0.0789835,,,,
0.308989797,0.0642044,0.0786319,,,,
0.309989764,0.0703946,0.0783239,,,,
0.310989731,0.0854185,0.0782148,,,,
0.311989698,0.0811753,0.0781856,,,,
0.312989665,0.0719771,0.0781691,,,,
0.313989632,0.0832755,0.0782572,,,,
0.314989599,0.102347,0.0784625,,,,
0.315989566,0.108073,0.0786957,,,,
0.316989533,0.0995892,0.0788614,,,,
0.3179895,0.0787385,0.0788276,,,,
0.318989467,0.0542146,0.0785398,,,,
0.319989434,0.0476372,0.0781746,,,,
0.320989401,0.0619742,0.0779569,,,,
0.321989368,0.079371,0.0779669,,,,
0.322989335,0.0910635,0.0781787,,,,
0.323989302,0.0936998,0.0784465,,,,
0.324989269,0.0869889,0.0786092,,,,
0.325989236,0.0849676,0.078707,,,,
0.326989203,0.0901928,0.0788183,,,,
0.32798917,0.0862408,0.0788401,,,,
0.328989137,0.0760962,0.0787065,,,,
0.329989104,0.0720496,0.0785223,,,,
0.330989071,0.0666832,0.0783252,,,,
0.331989038,0.0612406,0.0781074,,,,
0.332989005,0.0681822,0.0779871,,,,
0.333988972,0.0800863,0.0779988,,,,
0.334988939,0.0839271,0.0779937,,,,
0.335988906,0.0814948,0.0779144,,,,
0.336988873,0.0815668,0.0778376,,,,
0.33798884,0.0845893,0.0777845,,,,
0.338988807,0.0828241,0.0777446,,,,
0.339988774,0.0798375,0.077743,,,,
0.340988741,0.0831074,0.0777577,,,,
0.341988708,0.0855118,0.0777535,,,,
0.342988675,0.0820969,0.0777996,,,,
0.343988642,0.0821751,0.0779876,,,,
0.344988609,0.0896361,0.0782973,,,,
0.345988576,0.0923961,0.0785818,,,,
0.346988543,0.0851797,0.0786921,,,,
0.34798851,0.0766438,0.0786431,,,,
0.348988477,0.0688679,0.0784992,,,,
0.349988444,0.0614129,0.0782923,,,,
0.35098841,0.0588646,0.0781424,,,,
0.351988377,0.0619516,0.0780714,,,,
0.352988344,0.0695428,0.0779577,,,,
0.353988311,0.0772935,0.0778303,,,,
0.354988278,0.0760183,0.0777614,,,,
0.355988245,0.0657351,0.0776855,,,,
0.356988212,0.0577643,0.0775652,,,,
0.357988179,0.0597338,0.0774462,,,,
0.358988146,0.067381,0.077359,,,,
0.359988113,0.0699284,0.0772632,,,,
0.36098808,0.0618965,0.0770537,,,,
0.361988047,0.0516609,0.0767001,,,,
0.362988014,0.0526329,0.0763653,,,,
0.363987981,0.0648969,0.0762442,,,,
0.364987948,0.0783395,0.0763583,,,,
0.365987915,0.0852609,0.0765673,,,,
0.366987882,0.0835472,0.0766794,,,,
0.367987849,0.0799802,0.0766512,,,,
0.368987816,0.079359,0.0766095,,,,
0.369987783,0.0750515,0.0765959,,,,
0.37098775,0.0719393,0.0766264,,,,
0.371987717,0.083011,0.0768096,,,,
0.372987684,0.0937859,0.0770556,,,,
0.373987651,0.0865383,0.0771262,,,,
0.374987618,0.0768346,0.0770316,,,,
0.375987585,0.0775676,0.0769357,,,,
0.376987552,0.07589,0.0769015,,,,
0.377987519,0.0690828,0.0769032,,,,
0.378987486,0.0714814,0.0769059,,,,
0.379987453,0.0866528,0.0769701,,,,
0.38098742,0.100049,0.077152,,,,
0.381987387,0.0899983,0.0772582,,,,
0.382987354,0.0665567,0.0771516,,,,
0.383987321,0.0719572,0.0771408,,,,
0.384987288,0.0989915,0.0774274,,,,
0.385987255,0.0998103,0.0776845,,,,
0.386987222,0.0758254,0.0776537,,,,
0.387987189,0.0591526,0.0774498,,,,
0.388987156,0.057332,0.0772232,,,,
0.389987123,0.0664935,0.0770899,,,,
0.39098709,0.0821515,0.0771678,,,,
0.391987057,0.0893589,0.0773541,,,,
0.392987024,0.081929,0.0774166,,,,
0.393986991,0.0723769,0.0773301,,,,
0.394986958,0.0659585,0.0771771,,,,
0.395986925,0.0605761,0.0769927,,,,
0.396986892,0.0612387,0.0768612,,,,
0.397986859,0.0684789,0.0768407,,,,
0.398986826,0.0736595,0.0768446,,,,
0.399986793,0.072798,0.076771,,,,
0.40098676,0.0703042,0.076636,,,,
0.401986727,0.0689904,0.0765204,,,,
0.402986694,0.0681504,0.0764671,,,,
0.403986661,0.0701784,0.0764607,,,,
0.404986627,0.0762645,0.0764581,,,,
0.405986594,0.0792478,0.0763758,,,,
0.406986561,0.0759223,0.0762077,,,,
0.407986528,0.0729359,0.0761346,,,,
0.408986495,0.0711022,0.0762036,,,,
0.409986462,0.0702663,0.0762023,,,,
0.410986429,0.0741027,0.0760891,,,,
0.411986396,0.0767233,0.0760446,,,,
0.412986363,0.0756963,0.0760818,,,,
0.41398633,0.0770386,0.0760194,,,,
0.414986297,0.0786125,0.0757821,,,,
0.415986264,0.0785936,0.0754873,,,,
0.416986231,0.0781771,0.0752732,,,,
0.417986198,0.0756747,0.0752425,,,,
0.418986165,0.0758258,0.0754586,,,,
0.419986132,0.0769828,0.0757521,,,,
0.420986099,0.0683314,0.0758157,,,,
0.421986066,0.0598519,0.0756205,,,,
0.422986033,0.0669625,0.0753795,,,,
0.423986,0.0785957,0.0752284,,,,
0.424985967,0.080945,0.075168,,,,
0.425985934,0.0774147,0.0750925,,,,
0.426985901,0.073408,0.0749246,,,,
0.427985868,0.0692966,0.0747552,,,,
0.428985835,0.064805,0.0746422,,,,
0.429985802,0.0639545,0.0745613,,,,
0.430985769,0.0731501,0.074626,,,,
0.431985736,0.0901251,0.0749148,,,,
0.432985703,0.0970704,0.0752037,,,,
0.43398567,0.0804509,0.0752073,,,,
0.434985637,0.0636732,0.0750048,,,,
0.435985604,0.0694152,0.074884,,,,
0.436985571,0.075767,0.074826,,,,
0.437985538,0.0725322,0.0747054,,,,
0.438985505,0.0754102,0.0746313,,,,
0.439985472,0.0781589,0.0746145,,,,
0.440985439,0.0740471,0.0745239,,,,
0.441985406,0.0749393,0.0744182,,,,
0.442985373,0.0822583,0.0744198,,,,
0.44398534,0.0847953,0.074446,,,,
0.444985307,0.0818485,0.0743681,,,,
0.445985274,0.0804378,0.0742485,,,,
0.446985241,0.0791854,0.0741886,,,,
0.447985208,0.0757167,0.0741793,,,,
0.448985175,0.07267,0.0742173,,,,
0.449985142,0.0749179,0.0743524,,,,
0.450985109,0.0859369,0.0746231,,,,
0.451985076,0.0965529,0.0749691,,,,
0.452985043,0.0938577,0.0752123,,,,
0.45398501,0.0744236,0.0751836,,,,
0.454984977,0.050394,0.0749273,,,,
0.455984944,0.0508077,0.0747781,,,,
0.456984911,0.0763963,0.0749644,,,,
0.457984878,0.0886974,0.075254,,,,
0.458984844,0.0774559,0.0753548,,,,
0.459984811,0.0672099,0.0753276,,,,
0.460984778,0.0644833,0.0753534,,,,
0.461984745,0.0615067,0.0754519,,,,
0.462984712,0.0610701,0.0755363,,,,
0.463984679,0.0634758,0.0755221,,,,
0.464984646,0.0613301,0.075352,,,,
0.465984613,0.056544,0.0750648,,,,
0.46698458,0.0592142,0.0748215,,,,
0.467984547,0.0685918,0.0747076,,,,
0.468984514,0.0722971,0.074637,,,,
0.469984481,0.0673723,0.0745602,,,,
0.470984448,0.0626196,0.074467,,,,
0.471984415,0.0627998,0.0742649,,,,
0.472984382,0.0648879,0.0739759,,,,
0.473984349,0.0639589,0.0737501,,,,
0.474984316,0.0621739,0.0736035,,,,
0.475984283,0.0648999,0.0734768,,,,
0.47698425,0.0690535,0.0734084,,,,
0.477984217,0.0714672,0.0734323,,,,
0.478984184,0.0728747,0.0734462,,,,
0.479984151,0.0702178,0.0732819,,,,
0.480984118,0.0640433,0.0729218,,,,
0.481984085,0.063525,0.0726571,,,,
0.482984052,0.074139,0.0727329,,,,
0.483984019,0.0858876,0.0728722,,,,
0.484983986,0.0854143,0.0727364,,,,
0.485983953,0.0787028,0.0725254,,,,
0.48698392,0.0759821,0.0725269,,,,
0.487983887,0.0721521,0.0726569,,,,
0.488983854,0.067832,0.0727619,,,,
0.489983821,0.0707454,0.0728044,,,,
0.490983788,0.0762949,0.0727459,,,,
0.491983755,0.0752645,0.0726049,,,,
0.492983722,0.0661874,0.0724475,,,,
0.493983689,0.0590609,0.0723144,,,,
0.494983656,0.0630935,0.0722857,,,,
0.495983623,0.0703177,0.0723831,,,,
0.49698359,0.0709105,0.0724798,,,,
0.497983557,0.0668563,0.0724636,,,,
0.498983524,0.0616694,0.0723437,,,,
0.499983491,0.0574192,0.0721899,,,,
0.500983458,0.0561708,0.0720486,,,,
0.501983425,0.0591669,0.0719504,,,,
0.502983392,0.0643326,0.0719122,,,,
0.503983359,0.0651915,0.0718623,,,,
0.504983326,0.0657794,0.0717575,,,,
0.505983293,0.074623,0.0717112,,,,
0.50698326,0.0794166,0.0717462,,,,
0.507983227,0.0705278,0.0717221,,,,
0.508983194,0.0646584,0.0716576,,,,
0.509983161,0.0705925,0.0716609,,,,
0.510983128,0.0744008,0.0716639,,,,
0.511983094,0.0719177,0.0716158,,,,
0.512983061,0.0745211,0.0716041,,,,
0.513983028,0.0777802,0.0716115,,,,
0.514982995,0.0676287,0.0715017,,,,
0.515982962,0.0568577,0.0712843,,,,
0.516982929,0.0642117,0.0711446,,,,
0.517982896,0.0755139,0.071143,,,,
0.518982863,0.0714114,0.0710989,,,,
0.51998283,0.0604018,0.0709331,,,,
0.520982797,0.0582774,0.0708325,,,,
0.521982764,0.0648795,0.0708828,,,,
0.522982731,0.0718942,0.0709321,,,,
0.523982698,0.0734466,0.0708806,,,,
0.524982665,0.0669765,0.070741,,,,
0.525982632,0.0602767,0.0705696,,,,
0.526982599,0.0636608,0.0704721,,,,
0.527982566,0.0697979,0.0704771,,,,
0.528982533,0.0700302,0.0705294,,,,
0.5299825,0.0703785,0.0705936,,,,
0.530982467,0.0707595,0.0705697,,,,
0.531982434,0.0656764,0.0703252,,,,
0.532982401,0.0614025,0.0699685,,,,
0.533982368,0.0632832,0.0697969,,,,
0.534982335,0.0673624,0.0698338,,,,
0.535982302,0.0727454,0.0698671,,,,
0.536982269,0.0780906,0.0698903,,,,
0.537982236,0.0754491,0.0699195,,,,
0.538982203,0.0659376,0.0698247,,,,
0.53998217,0.0614961,0.0696581,,,,
0.540982137,0.0650973,0.0695686,,,,
0.541982104,0.0697768,0.069517,,,,
0.542982071,0.0731099,0.0694255,,,,
0.543982038,0.0755443,0.069333,,,,
0.544982005,0.0731121,0.0692456,,,,
0.545981972,0.0672182,0.0691134,,,,
0.546981939,0.0647222,0.0689688,,,,
0.547981906,0.0652805,0.0688644,,,,
0.548981873,0.0674148,0.0688119,,,,
0.54998184,0.0707679,0.0687704,,,,
0.550981807,0.0709203,0.0686202,,,,
0.551981774,0.0679621,0.0683343,,,,
0.552981741,0.0664296,0.06806,,,,
0.553981708,0.0681246,0.067997,,,,
0.554981675,0.0723242,0.0682163,,,,
0.555981642,0.0752426,0.0684607,,,,
0.556981609,0.0724246,0.068421,,,,
0.557981576,0.0662578,0.0681966,,,,
0.558981543,0.0632874,0.0680549,,,,
0.55998151,0.0639375,0.0680222,,,,
0.560981477,0.0686842,0.0680642,,,,
0.561981444,0.0778362,0.0682275,,,,
0.562981411,0.0800149,0.0684169,,,,
0.563981378,0.0715566,0.0684977,,,,
0.564981345,0.0666554,0.068551,,,,
0.565981311,0.0695794,0.0686813,,,,
0.566981278,0.0719021,0.0688082,,,,
0.567981245,0.0717587,0.0688399,,,,
0.568981212,0.0704274,0.0688212,,,,
0.569981179,0.0676985,0.0688244,,,,
0.570981146,0.0695049,0.0688933,,,,
0.571981113,0.0829209,0.0690945,,,,
0.57298108,0.098682,0.0694324,,,,
0.573981047,0.101036,0.0698032,,,,
0.574981014,0.0942617,0.0701241,,,,
0.575980981,0.089686,0.070372,,,,
0.576980948,0.0869964,0.0705514,,,,
0.577980915,0.0858044,0.0706948,,,,
0.578980882,0.087359,0.0708396,,,,
0.579980849,0.088651,0.0710239,,,,
0.580980816,0.0899752,0.0712833,,,,
0.581980783,0.0938787,0.0715868,,,,
0.58298075,0.0962434,0.0718078,,,,
0.583980717,0.0936361,0.0718853,,,,
0.584980684,0.0897811,0.071929,,,,
0.585980651,0.0879137,0.0720211,,,,
0.586980618,0.0889846,0.0721511,,,,
0.587980585,0.0918144,0.0723477,,,,
0.588980552,0.0923952,0.0725934,,,,
0.589980519,0.0893873,0.0727798,,,,
0.590980486,0.0833188,0.07285,,,,
0.591980453,0.0759098,0.0728565,,,,
0.59298042,0.0743114,0.0729377,,,,
0.593980387,0.0804363,0.0731515,,,,
0.594980354,0.0834384,0.0733549,,,,
0.595980321,0.0795003,0.0734468,,,,
0.596980288,0.0762356,0.0735,,,,
0.597980255,0.0721012,0.0735525,,,,
0.598980222,0.0661702,0.0735975,,,,
0.599980189,0.069752,0.0737208,,,,
0.600980156,0.0800362,0.0739594,,,,
0.601980123,0.0819039,0.0741868,,,,
0.60298009,0.0770299,0.0743138,,,,
0.603980057,0.0711613,0.0743735,,,,
0.604980024,0.0647431,0.0743631,,,,
0.605979991,0.0670806,0.0742877,,,,
0.606979958,0.076172,0.0742553,,,,
0.607979925,0.0762628,0.0743126,,,,
0.608979892,0.0694828,0.0743608,,,,
0.609979859,0.066309,0.074318,,,,
0.610979826,0.0668418,0.0742424,,,,
0.611979793,0.0687195,0.0742104,,,,
0.61297976,0.0713856,0.0741791,,,,
0.613979727,0.0748012,0.0741493,,,,
0.614979694,0.077453,0.0742475,,,,
0.615979661,0.0765623,0.0744446,,,,
0.616979628,0.0725669,0.0745281,,,,
0.617979595,0.0677149,0.0744501,,,,
0.618979562,0.0638475,0.0743745,,,,
0.619979528,0.0660004,0.0744305,,,,
0.620979495,0.0748136,0.0745959,,,,
0.621979462,0.0795801,0.0747429,,,,
0.622979429,0.0757179,0.0747811,,,,
0.623979396,0.0684555,0.0747312,,,,
0.624979363,0.0623447,0.0746849,,,,
0.62597933,0.0635337,0.0747174,,,,
0.626979297,0.0679636,0.0747605,,,,
0.627979264,0.0658761,0.0747213,,,,
0.628979231,0.0625777,0.0746467,,,,
0.629979198,0.0637482,0.0745804,,,,
0.630979165,0.065846,0.0745313,,,,
0.631979132,0.0662882,0.0745374,,,,
0.632979099,0.0658838,0.0745822,,,,
0.633979066,0.0675415,0.0746248,,,,
0.634979033,0.0684213,0.0746354,,,,
0.635979,0.0631655,0.0745396,,,,
0.636978967,0.055932,0.074318,,,,
0.637978934,0.0515144,0.0740787,,,,
0.638978901,0.0505122,0.0739244,,,,
0.639978868,0.0571453,0.0738809,,,,
0.640978835,0.0706123,0.073936,,,,
0.641978802,0.0768109,0.0740064,,,,
0.642978769,0.0668772,0.0739441,,,,
0.643978736,0.0547602,0.0737362,,,,
0.644978703,0.0537407,0.0735425,,,,
0.64597867,0.0558518,0.0734288,,,,
0.646978637,0.0563721,0.0733453,,,,
0.647978604,0.0610511,0.073303,,,,
0.648978571,0.0661831,0.0732907,,,,
0.649978538,0.0644477,0.0732275,,,,
0.650978505,0.0584326,0.0731027,,,,
0.651978472,0.0559593,0.0729826,,,,
0.652978439,0.0592585,0.0729109,,,,
0.653978406,0.0634852,0.0728645,,,,
0.654978373,0.0636741,0.072778,,,,
0.65597834,0.0584959,0.0726106,,,,
0.656978307,0.0531427,0.0724177,,,,
0.657978274,0.0532938,0.0722881,,,,
0.658978241,0.0575361,0.0722306,,,,
0.659978208,0.0629857,0.0722211,,,,
0.660978175,0.0652644,0.0721869,,,,
0.661978142,0.0618276,0.0720268,,,,
0.662978109,0.0586267,0.0718129,,,,
0.663978076,0.0591536,0.0716889,,,,
0.664978043,0.0603399,0.0716257,,,,
0.66597801,0.0618111,0.071548,,,,
0.666977977,0.0660716,0.0714897,,,,
0.667977944,0.0705401,0.0714775,,,,
0.668977911,0.0674813,0.0714481,,,,
0.669977878,0.0598072,0.0713692,,,,
0.670977845,0.0588932,0.071263,,,,
0.671977812,0.0600283,0.0710341,,,,
0.672977779,0.055154,0.0705988,,,,
0.673977745,0.0529707,0.0701182,,,,
0.674977712,0.0561148,0.0697367,,,,
0.675977679,0.0566105,0.069406,,,,
0.676977646,0.0559877,0.0690959,,,,
0.677977613,0.0583856,0.0688217,,,,
0.67897758,0.0612477,0.0685606,,,,
0.679977547,0.0621933,0.068296,,,,
0.680977514,0.0600714,0.067997,,,,
0.681977481,0.0549323,0.0676075,,,,
0.682977448,0.0504523,0.0671496,,,,
0.683977415,0.0499451,0.0667127,,,,
0.684977382,0.0541329,0.0663562,,,,
0.685977349,0.0589367,0.0660664,,,,
0.686977316,0.0582938,0.0657595,,,,
0.687977283,0.0557916,0.0653993,,,,
0.68897725,0.0557334,0.0650327,,,,
0.689977217,0.0540209,0.064679,,,,
0.690977184,0.0524386,0.0643702,,,,
0.691977151,0.0557542,0.0641687,,,,
0.692977118,0.0599582,0.0640251,,,,
0.693977085,0.0606824,0.0638276,,,,
0.694977052,0.0581769,0.063575,,,,
0.695977019,0.0542783,0.0633227,,,,
0.696976986,0.0523794,0.0630842,,,,
0.697976953,0.0537019,0.0629002,,,,
0.69897692,0.0565262,0.0628038,,,,
0.699976887,0.0600984,0.0627072,,,,
0.700976854,0.0611065,0.0625179,,,,
0.701976821,0.0541734,0.0622406,,,,
0.702976788,0.0452755,0.0619231,,,,
0.703976755,0.0472241,0.0616837,,,,
0.704976722,0.0554509,0.0615908,,,,
0.705976689,0.0576,0.061496,,,,
0.706976656,0.0584506,0.0613188,,,,
0.707976623,0.0602085,0.0611582,,,,
0.70897659,0.053687,0.0610003,,,,
0.709976557,0.0471526,0.0608087,,,,
0.710976524,0.0532366,0.0606726,,,,
0.711976491,0.0635,0.0606204,,,,
0.712976458,0.0673362,0.0605799,,,,
0.713976425,0.0615889,0.0604478,,,,
0.714976392,0.0505216,0.0601785,,,,
0.715976359,0.0490995,0.0599039,,,,
0.716976326,0.0580294,0.0597585,,,,
0.717976293,0.060775,0.0596891,,,,
0.71897626,0.0559601,0.0596102,,,,
0.719976227,0.0551631,0.0595019,,,,
0.720976194,0.0591242,0.059345,,,,
0.721976161,0.0607511,0.0591567,,,,
0.722976128,0.0563825,0.0589633,,,,
0.723976095,0.0520091,0.0587989,,,,
0.724976062,0.0569438,0.0587449,,,,
0.725976029,0.0627949,0.0587375,,,,
0.726975996,0.0603143,0.058661,,,,
0.727975962,0.0570991,0.0585732,,,,
0.728975929,0.0533574,0.058481,,,,
0.729975896,0.0485495,0.058329,,,,
0.730975863,0.049525,0.0581658,,,,
0.73197583,0.0499445,0.0580024,,,,
0.732975797,0.0477357,0.0578209,,,,
0.733975764,0.052738,0.0576728,,,,
0.734975731,0.0572648,0.0575613,,,,
0.735975698,0.0531032,0.0574607,,,,
0.736975665,0.0567911,0.0574693,,,,
0.737975632,0.0679463,0.0576336,,,,
0.738975599,0.0613106,0.0577416,,,,
0.739975566,0.0487923,0.057658,,,,
0.740975533,0.0546965,0.0574989,,,,
0.7419755,0.0574837,0.0573056,,,,
0.742975467,0.0457481,0.0570943,,,,
0.743975434,0.043563,0.0569823,,,,
0.744975401,0.0504324,0.0569492,,,,
0.745975368,0.0497968,0.0568887,,,,
0.746975335,0.0469909,0.0567949,,,,
0.747975302,0.0469164,0.0566535,,,,
0.748975269,0.0462443,0.0564542,,,,
0.749975236,0.0498337,0.056308,,,,
0.750975203,0.0562286,0.056286,,,,
0.75197517,0.0556218,0.0562826,,,,
0.752975137,0.0500665,0.0561907,,,,
0.753975104,0.0471507,0.0560273,,,,
0.754975071,0.0472599,0.0558632,,,,
0.755975038,0.0485151,0.0557634,,,,
0.756975005,0.0500547,0.0557325,,,,
0.757974972,0.0503457,0.055703,,,,
0.758974939,0.0496962,0.0556246,,,,
0.759974906,0.0501791,0.0554966,,,,
0.760974873,0.0506126,0.05535,,,,
0.76197484,0.048427,0.055216,,,,
0.762974807,0.0456091,0.0550859,,,,
0.763974774,0.047805,0.0549724,,,,
0.764974741,0.0537789,0.0549068,,,,
0.765974708,0.0546034,0.0548347,,,,
0.766974675,0.049893,0.0546729,,,,
0.767974642,0.0455658,0.0544232,,,,
0.768974609,0.0428703,0.054177,,,,
0.769974576,0.0453544,0.0540325,,,,
0.770974543,0.0537208,0.0539808,,,,
0.77197451,0.0558505,0.053939,,,,
0.772974477,0.0472129,0.0538596,,,,
0.773974444,0.0417132,0.053747,,,,
0.774974411,0.0434869,0.0536207,,,,
0.775974378,0.0457005,0.0535116,,,,
0.776974345,0.050619,0.053458,,,,
0.777974312,0.0562972,0.0534371,,,,
0.778974279,0.0595418,0.05342,,,,
0.779974246,0.0618467,0.0534165,,,,
0.780974213,0.0557425,0.0533733,,,,
0.781974179,0.0443508,0.0532674,,,,
0.782974146,0.0464049,0.053227,,,,
0.783974113,0.05854,0.0533129,,,,
0.78497408,0.0576742,0.0533483,,,,
0.785974047,0.0457545,0.0532165,,,,
0.786974014,0.0406564,0.0530401,,,,
0.787973981,0.0411961,0.0528942,,,,
0.788973948,0.0457364,0.0527942,,,,
0.789973915,0.0554883,0.0528089,,,,
0.790973882,0.0568804,0.0528533,,,,
0.791973849,0.0474518,0.0527703,,,,
0.792973816,0.0435239,0.0526059,,,,
0.793973783,0.0496036,0.0524951,,,,
0.79497375,0.0555799,0.0524692,,,,
0.795973717,0.058892,0.0525153,,,,
0.796973684,0.0611032,0.0526026,,,,
0.797973651,0.0564449,0.05263,,,,
0.798973618,0.0511864,0.0525766,,,,
0.799973585,0.0526916,0.0525025,,,,
0.800973552,0.051228,0.0524037,,,,
0.801973519,0.0514874,0.0523769,,,,
0.802973486,0.0587061,0.0525112,,,,
0.803973453,0.0575557,0.0526145,,,,
0.80497342,0.0503781,0.0525638,,,,
0.805973387,0.0493533,0.0524813,,,,
0.806973354,0.0471918,0.0523687,,,,
0.807973321,0.0427435,0.0521941,,,,
0.808973288,0.0481974,0.0521392,,,,
0.809973255,0.0570401,0.052238,,,,
0.810973222,0.0530369,0.052236,,,,
0.811973189,0.0440128,0.0520412,,,,
0.812973156,0.0441137,0.0518089,,,,
0.813973123,0.0471662,0.0516647,,,,
0.81497309,0.0475501,0.051635,,,,
0.815973057,0.0517606,0.0516616,,,,
0.816973024,0.0552236,0.0516336,,,,
0.817972991,0.0499138,0.0515249,,,,
0.818972958,0.0484554,0.0514499,,,,
0.819972925,0.0557247,0.0514555,,,,
0.820972892,0.0551001,0.0514153,,,,
0.821972859,0.0487202,0.051295,,,,
0.822972826,0.04885,0.0512196,,,,
0.823972793,0.0510534,0.0512101,,,,
0.82497276,0.0594147,0.0512348,,,,
0.825972727,0.0677997,0.0512848,,,,
0.826972694,0.0551309,0.051233,,,,
0.827972661,0.0477331,0.0511393,,,,
0.828972628,0.0593101,0.0511989,,,,
0.829972595,0.0511143,0.0512245,,,,
0.830972562,0.0402434,0.0511317,,,,
0.831972529,0.0569144,0.0512014,,,,
0.832972496,0.0638916,0.051363,,,,
0.833972463,0.0501992,0.0513376,,,,
0.83497243,0.045762,0.0512225,,,,
0.835972396,0.0500562,0.0511921,,,,
0.836972363,0.0522223,0.0511464,,,,
0.83797233,0.052996,0.0509969,,,,
0.838972297,0.048439,0.0508682,,,,
0.839972264,0.0419235,0.0507995,,,,
0.840972231,0.0461741,0.0507143,,,,
0.841972198,0.0590803,0.0507302,,,,
0.842972165,0.0681543,0.0509543,,,,
0.843972132,0.0709926,0.0512286,,,,
0.844972099,0.069304,0.0514173,,,,
0.845972066,0.0620607,0.0515399,,,,
0.846972033,0.0550227,0.0516203,,,,
0.847972,0.055412,0.0517052,,,,
0.848971967,0.0614152,0.0518569,,,,
0.849971934,0.066016,0.0520187,,,,
0.850971901,0.0643028,0.0520995,,,,
0.851971868,0.0584656,0.0521279,,,,
0.852971835,0.0532545,0.0521598,,,,
0.853971802,0.0498978,0.0521873,,,,
0.854971769,0.0503931,0.0522186,,,,
0.855971736,0.0549143,0.0522826,,,,
0.856971703,0.0584507,0.0523666,,,,
0.85797167,0.0604486,0.0524676,,,,
0.858971637,0.0569225,0.0525398,,,,
0.859971604,0.0421402,0.0524595,,,,
0.860971571,0.0340772,0.0522941,,,,
0.861971538,0.043241,0.0522422,,,,
0.862971505,0.0470983,0.0522571,,,,
0.863971472,0.0405972,0.0521851,,,,
0.864971439,0.0407334,0.0520546,,,,
0.865971406,0.0456777,0.0519653,,,,
0.866971373,0.047928,0.0519457,,,,
0.86797134,0.0523204,0.0520132,,,,
0.868971307,0.0583872,0.0521684,,,,
0.869971274,0.0609416,0.0523243,,,,
0.870971241,0.0623314,0.0524104,,,,
0.871971208,0.0578753,0.0524306,,,,
0.872971175,0.0458179,0.0524167,,,,
0.873971142,0.0469364,0.0524689,,,,
0.874971109,0.0597153,0.0526312,,,,
0.875971076,0.0546326,0.0527205,,,,
0.876971043,0.0455298,0.0526696,,,,
0.87797101,0.0626583,0.0527332,,,,
0.878970977,0.0736744,0.0528746,,,,
0.879970944,0.0522969,0.0527791,,,,
0.880970911,0.040582,0.0526275,,,,
0.881970878,0.0528673,0.0527126,,,,
0.882970845,0.0577827,0.0528264,,,,
0.883970812,0.0579841,0.0528209,,,,
0.884970779,0.0628893,0.052873,,,,
0.885970746,0.0581422,0.0529969,,,,
0.886970713,0.0481576,0.0530719,,,,
0.88797068,0.0496019,0.0531559,,,,
0.888970647,0.0590086,0.0532887,,,,
0.889970613,0.0680084,0.0534139,,,,
0.89097058,0.0717567,0.0535626,,,,
0.891970547,0.0610484,0.0536986,,,,
0.892970514,0.0456271,0.0537196,,,,
0.893970481,0.0477303,0.0537009,,,,
0.894970448,0.059396,0.0537391,,,,
0.895970415,0.0620868,0.053771,,,,
0.896970382,0.0602466,0.0537624,,,,
0.897970349,0.0581689,0.0537797,,,,
0.898970316,0.0536157,0.053804,,,,
0.899970283,0.0535402,0.0538125,,,,
0.90097025,0.0596397,0.0538966,,,,
0.901970217,0.063585,0.0540176,,,,
0.902970184,0.0646954,0.0540775,,,,
0.903970151,0.0668597,0.0541705,,,,
0.904970118,0.065769,0.0543244,,,,
0.905970085,0.0579929,0.0544108,,,,
0.906970052,0.0514528,0.0544534,,,,
0.907970019,0.0514649,0.0545406,,,,
0.908969986,0.0541333,0.0546,,,,
0.909969953,0.0583903,0.0546135,,,,
0.91096992,0.0624763,0.0547079,,,,
0.911969887,0.0628826,0.0548966,,,,
0.912969854,0.0629852,0.0550853,,,,
0.913969821,0.0651994,0.0552656,,,,
0.914969788,0.0674292,0.0554644,,,,
0.915969755,0.0690781,0.0556376,,,,
0.916969722,0.0695164,0.0557805,,,,
0.917969689,0.0649781,0.0559312,,,,
0.918969656,0.0602551,0.0560492,,,,
0.919969623,0.0689419,0.0561813,,,,
0.92096959,0.0779027,0.0564094,,,,
0.921969557,0.0651103,0.0565733,,,,
0.922969524,0.0492842,0.0565776,,,,
0.923969491,0.0501652,0.0565687,,,,
0.924969458,0.0587879,0.0565624,,,,
0.925969425,0.0723748,0.0566082,,,,
0.926969392,0.0834277,0.0568912,,,,
0.927969359,0.0738066,0.0571519,,,,
0.928969326,0.0565549,0.0571243,,,,
0.929969293,0.0557152,0.0571704,,,,
0.93096926,0.0599512,0.0573674,,,,
0.931969227,0.0557801,0.0573561,,,,
0.932969194,0.0577736,0.0572949,,,,
0.933969161,0.0693158,0.0574861,,,,
0.934969128,0.0763525,0.057792,,,,
0.935969095,0.0777936,0.0580694,,,,
0.936969062,0.0723351,0.0582705,,,,
0.937969029,0.0601287,0.0583418,,,,
0.938968996,0.054237,0.0583998,,,,
0.939968963,0.0556835,0.0585374,,,,
0.94096893,0.0606632,0.0586823,,,,
0.941968897,0.07129,0.0588044,,,,
0.942968864,0.0765523,0.0588884,,,,
0.94396883,0.068499,0.0588634,,,,
0.944968797,0.0606408,0.0587768,,,,
0.945968764,0.0633606,0.0587898,,,,
0.946968731,0.0732954,0.0589725,,,,
0.947968698,0.0811287,0.0592297,,,,
0.948968665,0.0795263,0.0594108,,,,
0.949968632,0.0766751,0.0595174,,,,
0.950968599,0.076364,0.059638,,,,
0.951968566,0.0742304,0.0597956,,,,
0.952968533,0.071426,0.0599774,,,,
0.9539685,0.0595227,0.0600736,,,,
0.954968467,0.0451085,0.0600208,,,,
0.955968434,0.0459329,0.059931,,,,
0.956968401,0.0533756,0.0598802,,,,
0.957968368,0.057956,0.0598553,,,,
0.958968335,0.0604618,0.0598907,,,,
0.959968302,0.0629746,0.060099,,,,
0.960968269,0.065505,0.0604133,,,,
0.961968236,0.0590847,0.0605717,,,,
0.962968203,0.0512198,0.0606129,,,,
0.96396817,0.0533961,0.0607409,,,,
0.964968137,0.0482995,0.0608166,,,,
0.965968104,0.0358277,0.0607181,,,,
0.966968071,0.0394585,0.0606334,,,,
0.967968038,0.0521025,0.0606312,,,,
0.968968005,0.0596788,0.0606441,,,,
0.969967972,0.0662567,0.0606973,,,,
0.970967939,0.0663111,0.0607371,,,,
0.971967906,0.0543792,0.0607021,,,,
0.972967873,0.0461804,0.0607057,,,,
0.97396784,0.0558138,0.0607945,,,,
0.974967807,0.0709048,0.0609064,,,,
0.975967774,0.0739602,0.0610997,,,,
0.976967741,0.0675443,0.0613198,,,,
0.977967708,0.0602537,0.0612958,,,,
0.978967675,0.0584154,0.0611432,,,,
0.979967642,0.0627399,0.0612476,,,,
0.980967609,0.0628691,0.0614705,,,,
0.981967576,0.0590419,0.0615322,,,,
0.982967543,0.0596251,0.0615507,,,,
0.98396751,0.0589635,0.0615605,,,,
0.984967477,0.0550046,0.0614816,,,,
0.985967444,0.0580061,0.0614803,,,,
0.986967411,0.0656218,0.0616549,,,,
0.987967378,0.0652007,0.0618109,,,,
0.988967345,0.0610736,0.0618315,,,,
0.989967312,0.0618416,0.0617699,,,,
0.990967279,0.0597698,0.06165,,,,
0.991967246,0.0583445,0.061623,,,,
0.992967213,0.0699813,0.0618665,,,,
0.99396718,0.0799562,0.0621888,,,,
0.994967147,0.0727665,0.0623225,,,,
0.995967114,0.0653627,0.0623552,,,,
0.99696708,0.0695614,0.0624484,,,,
0.997967047,0.0666807,0.0625335,,,,
0.998967014,0.0536707,0.062534,,,,
0.999966981,0.055014,0.0625488,,,,
1.000966948,0.0711101,0.0626635,,,,
1.001966915,0.0825427,0.0628531,,,,
1.002966882,0.0802553,0.0630087,,,,
1.003966849,0.0633448,0.0629735,,,,
1.004966816,0.0517534,0.0628334,,,,
1.005966783,0.0617252,0.0628707,,,,
1.00696675,0.0746782,0.0631029,,,,
1.007966717,0.0759977,0.0633483,,,,
1.008966684,0.0716659,0.0635236,,,,
1.009966651,0.0697369,0.0636371,,,,
1.010966618,0.0709585,0.0637219,,,,
1.011966585,0.0695554,0.0637886,,,,
1.012966552,0.0686624,0.0638454,,,,
1.013966519,0.0700972,0.0638944,,,,
1.014966486,0.0678547,0.0638986,,,,
1.015966453,0.0671534,0.0638794,,,,
1.01696642,0.0702095,0.0638863,,,,
1.017966387,0.0720692,0.0639572,,,,
1.018966354,0.0768563,0.0641232,,,,
1.019966321,0.0783193,0.064217,,,,
1.020966288,0.0646802,0.0640848,,,,
1.021966255,0.0469187,0.0639028,,,,
1.022966222,0.0409887,0.0638199,,,,
1.023966189,0.0493753,0.063812,,,,
1.024966156,0.0665145,0.0638893,,,,
1.025966123,0.0788645,0.0639542,,,,
1.02696609,0.0741591,0.0638615,,,,
1.027966057,0.057146,0.0636949,,,,
1.028966024,0.0464412,0.0635937,,,,
1.029965991,0.0528957,0.0635655,,,,
1.030965958,0.066608,0.0636321,,,,
1.031965925,0.0718849,0.0637931,,,,
1.032965892,0.0679115,0.0638945,,,,
1.033965859,0.0686011,0.0638874,,,,
1.034965826,0.0801904,0.0639258,,,,
1.035965793,0.0911335,0.0640592,,,,
1.03696576,0.0916071,0.0642519,,,,
1.037965727,0.0859912,0.0645105,,,,
1.038965694,0.0778298,0.0647464,,,,
1.039965661,0.0588995,0.0647786,,,,
1.040965628,0.0396342,0.0645683,,,,
1.041965595,0.0419116,0.0642745,,,,
1.042965562,0.0528638,0.0640376,,,,
1.043965529,0.0580567,0.0639332,,,,
1.044965496,0.0637874,0.0639647,,,,
1.045965463,0.0668059,0.0639991,,,,
1.04696543,0.0629515,0.0638957,,,,
1.047965397,0.0565694,0.0636501,,,,
1.048965364,0.0492027,0.0633469,,,,
1.049965331,0.0395644,0.0629758,,,,
1.050965297,0.0366022,0.0625781,,,,
1.051965264,0.0478214,0.062314,,,,
1.052965231,0.0578968,0.0621788,,,,
1.053965198,0.0623381,0.0622069,,,,
1.054965165,0.0720215,0.062476,,,,
1.055965132,0.0694372,0.0627111,,,,
1.056965099,0.0530105,0.0627074,,,,
1.057965066,0.0591855,0.0627197,,,,
1.058965033,0.0793625,0.0629087,,,,
1.059965,0.080024,0.0630792,,,,
1.060964967,0.0743194,0.0631674,,,,
1.061964934,0.0745738,0.0633223,,,,
1.062964901,0.0654003,0.0634641,,,,
1.063964868,0.054545,0.0634756,,,,
1.064964835,0.0593546,0.0635861,,,,
1.065964802,0.0659382,0.0638872,,,,
1.066964769,0.0608408,0.064101,,,,
1.067964736,0.0529952,0.06411,,,,
1.068964703,0.0509406,0.0640226,,,,
1.06996467,0.0555774,0.0639158,,,,
1.070964637,0.0635532,0.0638882,,,,
1.071964604,0.0688998,0.0640334,,,,
1.072964571,0.0708321,0.0642799,,,,
1.073964538,0.072993,0.0644517,,,,
1.074964505,0.0713004,0.0644557,,,,
1.075964472,0.0630709,0.0643468,,,,
1.076964439,0.0567095,0.0642384,,,,
1.077964406,0.0591068,0.064227,,,,
1.078964373,0.0695323,0.0643381,,,,
1.07996434,0.0729365,0.0644401,,,,
1.080964307,0.0636467,0.0644479,,,,
1.081964274,0.0655721,0.0645132,,,,
1.082964241,0.0762553,0.0646795,,,,
1.083964208,0.0697351,0.0647872,,,,
1.084964175,0.061274,0.0648499,,,,
1.085964142,0.0714563,0.0649844,,,,
1.086964109,0.0836815,0.065165,,,,
1.087964076,0.0841718,0.0653547,,,,
1.088964043,0.0788045,0.065532,,,,
1.08996401,0.0722264,0.0656359,,,,
1.090963977,0.0693861,0.065732,,,,
1.091963944,0.0769221,0.0659178,,,,
1.092963911,0.083374,0.0660517,,,,
1.093963878,0.0745638,0.0659978,,,,
1.094963845,0.0578642,0.0658488,,,,
1.095963812,0.0460927,0.0656561,,,,
1.096963779,0.0517063,0.0654775,,,,
1.097963746,0.0713474,0.0655242,,,,
1.098963713,0.0787835,0.0657753,,,,
1.09996368,0.0749865,0.065975,,,,
1.100963647,0.0808067,0.066072,,,,
1.101963614,0.0795622,0.0660422,,,,
1.102963581,0.0560216,0.0657999,,,,
1.103963548,0.0437826,0.0656042,,,,
1.104963514,0.0597169,0.0656839,,,,
1.105963481,0.0682576,0.0657492,,,,
1.106963448,0.0519148,0.0655216,,,,
1.107963415,0.036825,0.0651298,,,,
1.108963382,0.0433231,0.0648464,,,,
1.109963349,0.0679488,0.0648285,,,,
1.110963316,0.0878816,0.0649978,,,,
1.111963283,0.0824446,0.0651267,,,,
1.11296325,0.063826,0.0650783,,,,
1.113963217,0.0486978,0.0648643,,,,
1.114963184,0.0418896,0.0646046,,,,
1.115963151,0.0479764,0.0644129,,,,
1.116963118,0.0564438,0.0642752,,,,
1.117963085,0.0584217,0.0641387,,,,
1.118963052,0.0574829,0.063945,,,,
1.119963019,0.053778,0.0636996,,,,
1.120962986,0.0533808,0.0635866,,,,
1.121962953,0.0616671,0.0637341,,,,
1.12296292,0.0702186,0.0640264,,,,
1.123962887,0.0712427,0.0642451,,,,
1.124962854,0.0676773,0.0642567,,,,
1.125962821,0.0665373,0.0641334,,,,
1.126962788,0.0689624,0.0640814,,,,
1.127962755,0.0690849,0.0642008,,,,
1.128962722,0.0640363,0.0643768,,,,
1.129962689,0.0628709,0.0644765,,,,
1.130962656,0.0715866,0.0645263,,,,
1.131962623,0.0782385,0.0645899,,,,
1.13296259,0.0757345,0.0646681,,,,
1.133962557,0.0740904,0.064723,,,,
1.134962524,0.0804588,0.0647257,,,,
1.135962491,0.0918328,0.0647327,,,,
1.136962458,0.0969002,0.0647856,,,,
1.137962425,0.0889121,0.0648148,,,,
1.138962392,0.0823049,0.0648596,,,,
1.139962359,0.0777517,0.0650481,,,,
1.140962326,0.0570587,0.0652223,,,,
1.141962293,0.0396787,0.0652,,,,
1.14296226,0.0477229,0.0651486,,,,
1.143962227,0.0617516,0.0651855,,,,
1.144962194,0.069289,0.0652406,,,,
1.145962161,0.0720262,0.0652928,,,,
1.146962128,0.0697535,0.0653608,,,,
1.147962095,0.0716308,0.0655114,,,,
1.148962062,0.0793907,0.0658133,,,,
1.149962029,0.0743828,0.0661615,,,,
1.150961996,0.0492623,0.0662881,,,,
1.151961963,0.0313827,0.0661237,,,,
1.15296193,0.0366117,0.0659108,,,,
1.153961897,0.0432145,0.0657196,,,,
1.154961864,0.0481593,0.065481,,,,
1.155961831,0.0632028,0.0654186,,,,
1.156961798,0.0693966,0.0655825,,,,
1.157961765,0.0666213,0.0656568,,,,
1.158961731,0.0765379,0.0656286,,,,
1.159961698,0.0769563,0.0655979,,,,
1.160961665,0.0607862,0.0654626,,,,
1.161961632,0.064212,0.065359,,,,
1.162961599,0.0778415,0.0654834,,,,
1.163961566,0.0743113,0.065681,,,,
1.164961533,0.0689843,0.0657773,,,,
1.1659615,0.067639,0.0657943,,,,
1.166961467,0.0533479,0.0657194,,,,
1.167961434,0.0361293,0.0655508,,,,
1.168961401,0.0413771,0.0654551,,,,
1.169961368,0.065793,0.0655573,,,,
1.170961335,0.0837537,0.0657593,,,,
1.171961302,0.0804733,0.065875,,,,
1.172961269,0.0600842,0.0657675,,,,
1.173961236,0.0390243,0.0654278,,,,
1.174961203,0.038509,0.0650999,,,,
1.17596117,0.0546758,0.065016,,,,
1.176961137,0.0602589,0.0650515,,,,
1.177961104,0.0556001,0.0650164,,,,
1.178961071,0.0567545,0.0648886,,,,
1.179961038,0.0582395,0.0647417,,,,
1.180961005,0.0561767,0.064667,,,,
1.181960972,0.0564908,0.0645761,,,,
1.182960939,0.0578323,0.0643919,,,,
1.183960906,0.0580887,0.0642755,,,,
1.184960873,0.0591898,0.0642546,,,,
1.18596084,0.0587481,0.0641275,,,,
1.186960807,0.0534377,0.0638251,,,,
1.187960774,0.0524756,0.0635081,,,,
1.188960741,0.0666985,0.0633871,,,,
1.189960708,0.0853409,0.0635182,,,,
1.190960675,0.0878353,0.0637027,,,,
1.191960642,0.0707662,0.0636411,,,,
1.192960609,0.053609,0.0633435,,,,
1.193960576,0.0530269,0.0631281,,,,
1.194960543,0.0642993,0.0631925,,,,
1.19596051,0.0796878,0.0635284,,,,
1.196960477,0.0865989,0.0638774,,,,
1.197960444,0.0753621,0.0639175,,,,
1.198960411,0.060759,0.0637373,,,,
1.199960378,0.0517901,0.0635053,,,,
1.200960345,0.0529335,0.0632266,,,,
1.201960312,0.0693568,0.0631245,,,,
1.202960279,0.0760531,0.0633248,,,,
1.203960246,0.0643783,0.0635308,,,,
1.204960213,0.0589154,0.0635228,,,,
1.20596018,0.0616717,0.0634569,,,,
1.206960147,0.0641974,0.0635797,,,,
1.207960114,0.0662948,0.0638744,,,,
1.208960081,0.065458,0.0640958,,,,
1.209960048,0.0643208,0.0640595,,,,
1.210960015,0.0654372,0.0638351,,,,
1.211959982,0.0652852,0.0636635,,,,
1.212959948,0.0639947,0.0636651,,,,
1.213959915,0.0663121,0.0638413,,,,
1.214959882,0.0714774,0.0641372,,,,
1.215959849,0.0711086,0.0643685,,,,
1.216959816,0.065904,0.0644631,,,,
1.217959783,0.0651368,0.0645302,,,,
1.21895975,0.0637418,0.0645928,,,,
1.219959717,0.0590179,0.0646452,,,,
1.220959684,0.0657733,0.0647692,,,,
1.221959651,0.0782401,0.0649349,,,,
1.222959618,0.0740351,0.0649731,,,,
1.223959585,0.0592728,0.0648534,,,,
1.224959552,0.0552807,0.0647294,,,,
1.225959519,0.0634522,0.0646985,,,,
1.226959486,0.0707407,0.0647163,,,,
1.227959453,0.0712398,0.0647379,,,,
1.22895942,0.0687922,0.0647854,,,,
1.229959387,0.0672568,0.0648293,,,,
1.230959354,0.0665106,0.0647785,,,,
1.231959321,0.0634576,0.0646307,,,,
1.232959288,0.0598937,0.0644723,,,,
1.233959255,0.0621602,0.064353,,,,
1.234959222,0.0667719,0.0642161,,,,
1.235959189,0.0665334,0.0639631,,,,
1.236959156,0.0664934,0.0636591,,,,
1.237959123,0.0709236,0.0634792,,,,
1.23895909,0.0723781,0.0633799,,,,
1.239959057,0.0689099,0.0632915,,,,
1.240959024,0.0689917,0.0634108,,,,
1.241958991,0.0741954,0.063756,,,,
1.242958958,0.0764195,0.064043,,,,
1.243958925,0.0721958,0.0641474,,,,
1.244958892,0.0668331,0.0641228,,,,
1.245958859,0.0637674,0.0640403,,,,
1.246958826,0.0590921,0.0639336,,,,
1.247958793,0.0548912,0.0637662,,,,
1.24895876,0.062817,0.0636005,,,,
1.249958727,0.083564,0.0636923,,,,
1.250958694,0.0999008,0.0641987,,,,
1.251958661,0.0941574,0.0648265,,,,
1.252958628,0.0697469,0.0651578,,,,
1.253958595,0.0529462,0.0652551,,,,
1.254958562,0.0559646,0.0653332,,,,
1.255958529,0.0556914,0.0652581,,,,
1.256958496,0.0501813,0.0650659,,,,
1.257958463,0.0633137,0.0650328,,,,
1.25895843,0.0711599,0.0649791,,,,
1.259958397,0.059065,0.0648001,,,,
1.260958364,0.0642423,0.0648347,,,,
1.261958331,0.079406,0.0649866,,,,
1.262958298,0.0783451,0.0649917,,,,
1.263958265,0.0740837,0.0649894,,,,
1.264958232,0.071179,0.0650114,,,,
1.265958199,0.0656565,0.0649915,,,,
1.266958165,0.0609215,0.0650673,,,,
1.267958132,0.059422,0.0653002,,,,
1.268958099,0.0677928,0.0655643,,,,
1.269958066,0.0813415,0.0657198,,,,
1.270958033,0.081523,0.0656975,,,,
1.271958,0.0668711,0.0655615,,,,
1.272957967,0.0567417,0.0655281,,,,
1.273957934,0.0624408,0.0657622,,,,
1.274957901,0.0703793,0.0660809,,,,
1.275957868,0.0655969,0.0661902,,,,
1.276957835,0.0566327,0.0661539,,,,
1.277957802,0.0533256,0.0661311,,,,
1.278957769,0.0545182,0.0661088,,,,
1.279957736,0.0600416,0.0661268,,,,
1.280957703,0.0672854,0.0662379,,,,
1.28195767,0.0698136,0.0663711,,,,
1.282957637,0.0638296,0.0664311,,,,
1.283957604,0.0571967,0.0664222,,,,
1.284957571,0.0573071,0.0664033,,,,
1.285957538,0.0593312,0.0664092,,,,
1.286957505,0.0642496,0.0665173,,,,
1.287957472,0.0707442,0.0667,,,,
1.288957439,0.0705549,0.0667385,,,,
1.289957406,0.0695676,0.0665808,,,,
1.290957373,0.0713152,0.0664156,,,,
1.29195734,0.0669796,0.0663777,,,,
1.292957307,0.0598603,0.0664403,,,,
1.293957274,0.0625047,0.066535,,,,
1.294957241,0.0724785,0.0666168,,,,
1.295957208,0.0728218,0.0665482,,,,
1.296957175,0.0600188,0.0662824,,,,
1.297957142,0.0527303,0.0660561,,,,
1.298957109,0.0599903,0.0660484,,,,
1.299957076,0.0693534,0.066224,,,,
1.300957043,0.071531,0.06641,,,,
1.30195701,0.0689584,0.066406,,,,
1.302956977,0.0672931,0.0663184,,,,
1.303956944,0.0684432,0.066359,,,,
1.304956911,0.0693009,0.0664629,,,,
1.305956878,0.0687366,0.0665335,,,,
1.306956845,0.0671398,0.066563,,,,
1.307956812,0.069257,0.0665926,,,,
1.308956779,0.0808474,0.0667465,,,,
1.309956746,0.0900883,0.0670042,,,,
1.310956713,0.0832005,0.0671818,,,,
1.31195668,0.064128,0.0671702,,,,
1.312956647,0.04834,0.0670137,,,,
1.313956614,0.0543552,0.0668941,,,,
1.314956581,0.0745243,0.0669246,,,,
1.315956548,0.0808054,0.0670215,,,,
1.316956515,0.0747073,0.0671096,,,,
1.317956482,0.0721158,0.0671794,,,,
1.318956449,0.0688694,0.0672306,,,,
1.319956416,0.0650399,0.0672909,,,,
1.320956382,0.066331,0.0672964,,,,
1.321956349,0.0644477,0.0671585,,,,
1.322956316,0.060287,0.067021,,,,
1.323956283,0.0627773,0.0670561,,,,
1.32495625,0.0656077,0.0671593,,,,
1.325956217,0.0654369,0.0671792,,,,
1.326956184,0.0681232,0.067153,,,,
1.327956151,0.0752564,0.0671932,,,,
1.328956118,0.0795689,0.067301,,,,
1.329956085,0.0695738,0.0673241,,,,
1.330956052,0.0548929,0.0672079,,,,
1.331956019,0.0537152,0.0671105,,,,
1.332955986,0.0598612,0.0671102,,,,
1.333955953,0.0654969,0.0671436,,,,
1.33495592,0.0751569,0.0672274,,,,
1.335955887,0.0822039,0.0673841,,,,
1.336955854,0.0744168,0.0674634,,,,
1.337955821,0.0604005,0.0673581,,,,
1.338955788,0.057714,0.0672115,,,,
1.339955755,0.0637837,0.0671602,,,,
1.340955722,0.0682527,0.0671528,,,,
1.341955689,0.0743592,0.0671545,,,,
1.342955656,0.0843685,0.067234,,,,
1.343955623,0.0878722,0.0673907,,,,
1.34495559,0.0794979,0.0675174,,,,
1.345955557,0.0650803,0.0675305,,,,
1.346955524,0.0525871,0.0674654,,,,
1.347955491,0.0519613,0.0674361,,,,
1.348955458,0.0635251,0.0674432,,,,
1.349955425,0.0734511,0.0673421,,,,
1.350955392,0.0735123,0.0670782,,,,
1.351955359,0.0699122,0.0668358,,,,
1.352955326,0.0727247,0.0668655,,,,
1.353955293,0.0791732,0.0671278,,,,
1.35495526,0.0798195,0.0673664,,,,
1.355955227,0.0761381,0.0675708,,,,
1.356955194,0.0707641,0.0677767,,,,
1.357955161,0.0640349,0.0677839,,,,
1.358955128,0.062053,0.0676928,,,,
1.359955095,0.0651089,0.0677532,,,,
1.360955062,0.066774,0.0677786,,,,
1.361955029,0.0663898,0.0676484,,,,
1.362954996,0.0636463,0.0675014,,,,
1.363954963,0.0592919,0.0673535,,,,
1.36495493,0.0616279,0.067258,,,,
1.365954897,0.0710489,0.0673119,,,,
1.366954864,0.0765371,0.0674681,,,,
1.367954831,0.0734904,0.0676087,,,,
1.368954798,0.069164,0.0676225,,,,
1.369954765,0.0684227,0.0674933,,,,
1.370954732,0.0663345,0.0673414,,,,
1.371954699,0.0680484,0.0673532,,,,
1.372954666,0.0824131,0.0676099,,,,
1.373954633,0.0948127,0.0679336,,,,
1.374954599,0.0910628,0.0681404,,,,
1.375954566,0.0772314,0.0682568,,,,
1.376954533,0.0601602,0.068292,,,,
1.3779545,0.0497453,0.0682562,,,,
1.378954467,0.0583633,0.0682947,,,,
1.379954434,0.0744139,0.0684384,,,,
1.380954401,0.0785131,0.0685507,,,,
1.381954368,0.0757842,0.0686104,,,,
1.382954335,0.0745294,0.0687174,,,,
1.383954302,0.0726763,0.0688722,,,,
1.384954269,0.0694723,0.0689938,,,,
1.385954236,0.0645824,0.0690464,,,,
1.386954203,0.0642966,0.0690468,,,,
1.38795417,0.0666537,0.0690059,,,,
1.388954137,0.0584978,0.0688853,,,,
1.389954104,0.052401,0.0687137,,,,
1.390954071,0.058203,0.0685826,,,,
1.391954038,0.0623174,0.0685359,,,,
1.392954005,0.0726829,0.0686642,,,,
1.393953972,0.0917958,0.0689571,,,,
1.394953939,0.0935438,0.0691677,,,,
1.395953906,0.0767087,0.0692066,,,,
1.396953873,0.0670336,0.0692767,,,,
1.39795384,0.0763996,0.0695134,,,,
1.398953807,0.0887857,0.0698014,,,,
1.399953774,0.0841718,0.0699496,,,,
1.400953741,0.0734177,0.0699684,,,,
1.401953708,0.0719047,0.0699979,,,,
1.402953675,0.0715765,0.0700407,,,,
1.403953642,0.0694286,0.0700506,,,,
1.404953609,0.068391,0.0700415,,,,
1.405953576,0.0673012,0.0700271,,,,
1.406953543,0.070542,0.0700612,,,,
1.40795351,0.0717029,0.0700856,,,,
1.408953477,0.0611246,0.0698884,,,,
1.409953444,0.0549203,0.0695367,,,,
1.410953411,0.0673343,0.069378,,,,
1.411953378,0.0819728,0.0695565,,,,
1.412953345,0.0801625,0.0698747,,,,
1.413953312,0.0672483,0.0700037,,,,
1.414953279,0.0560827,0.0698192,,,,
1.415953246,0.0554385,0.0695656,,,,
1.416953213,0.0731185,0.0695497,,,,
1.41795318,0.0906878,0.0697354,,,,
1.418953147,0.0835757,0.0698825,,,,
1.419953114,0.0727652,0.0699597,,,,
1.420953081,0.0741057,0.0700375,,,,
1.421953048,0.0662258,0.0700552,,,,
1.422953015,0.0550274,0.0700026,,,,
1.423952982,0.0630439,0.0700053,,,,
1.424952949,0.0774102,0.0701233,,,,
1.425952916,0.0832433,0.0703014,,,,
1.426952883,0.0852531,0.0704727,,,,
1.42795285,0.0785682,0.0705058,,,,
1.428952816,0.0631504,0.0703416,,,,
1.429952783,0.0580369,0.0702263,,,,
1.43095275,0.0664308,0.0703416,,,,
1.431952717,0.0715763,0.0705203,,,,
1.432952684,0.0682692,0.0706043,,,,
1.433952651,0.0667362,0.0706167,,,,
1.434952618,0.0716474,0.0705816,,,,
1.435952585,0.0765199,0.0705248,,,,
1.436952552,0.0798509,0.0705791,,,,
1.437952519,0.0841654,0.0708168,,,,
1.438952486,0.0856722,0.0710964,,,,
1.439952453,0.0843507,0.071302,,,,
1.44095242,0.0820381,0.0714399,,,,
1.441952387,0.0804791,0.0715011,,,,
1.442952354,0.0842519,0.0714999,,,,
1.443952321,0.0821385,0.0714426,,,,
1.444952288,0.0701918,0.0713495,,,,
1.445952255,0.0693424,0.0713922,,,,
1.446952222,0.0738456,0.0716047,,,,
1.447952189,0.0668338,0.0717535,,,,
1.448952156,0.0641152,0.0717594,,,,
1.449952123,0.0701753,0.0717266,,,,
1.45095209,0.0716355,0.0717078,,,,
1.451952057,0.0715085,0.0717238,,,,
1.452952024,0.0719837,0.0717164,,,,
1.453951991,0.0655204,0.0715799,,,,
1.454951958,0.0568897,0.0713506,,,,
1.455951925,0.060989,0.0711991,,,,
1.456951892,0.071366,0.0712051,,,,
1.457951859,0.0737194,0.0713019,,,,
1.458951826,0.0756594,0.071438,,,,
1.459951793,0.0778321,0.0715652,,,,
1.46095176,0.0712784,0.0716103,,,,
1.461951727,0.0629489,0.0715759,,,,
1.462951694,0.0633443,0.0715728,,,,
1.463951661,0.0756306,0.0717362,,,,
1.464951628,0.0901929,0.0720219,,,,
1.465951595,0.0909121,0.0722205,,,,
1.466951562,0.0791985,0.0722471,,,,
1.467951529,0.070858,0.0722208,,,,
1.468951496,0.0740357,0.0722695,,,,
1.469951463,0.0796622,0.0723819,,,,
1.47095143,0.0766007,0.0724846,,,,
1.471951397,0.0711442,0.0725155,,,,
1.472951364,0.0727461,0.0724189,,,,
1.473951331,0.0773566,0.0722443,,,,
1.474951298,0.077964,0.0721133,,,,
1.475951265,0.07441,0.0720851,,,,
1.476951232,0.0713839,0.0721973,,,,
1.477951199,0.072082,0.0724207,,,,
1.478951166,0.0750489,0.0725876,,,,
1.479951133,0.0772824,0.0726162,,,,
1.4809511,0.0766535,0.0725977,,,,
1.481951066,0.0720457,0.0725603,,,,
1.482951033,0.0665255,0.0724802,,,,
1.483951,0.0653857,0.0724073,,,,
1.484950967,0.0677254,0.0723899,,,,
1.485950934,0.0685383,0.0724294,,,,
1.486950901,0.0658986,0.0724454,,,,
1.487950868,0.0626493,0.0724054,,,,
1.488950835,0.0617301,0.0724377,,,,
1.489950802,0.0629339,0.072543,,,,
1.490950769,0.0685672,0.0726467,,,,
1.491950736,0.0748504,0.072772,,,,
1.492950703,0.0706473,0.0727517,,,,
1.49395067,0.0647117,0.0724808,,,,
1.494950637,0.070336,0.0722487,,,,
1.495950604,0.075879,0.0722404,,,,
1.496950571,0.0744946,0.0723151,,,,
1.497950538,0.0755193,0.0723063,,,,
1.498950505,0.0801369,0.0722198,,,,
1.499950472,0.0788681,0.0721667,,,,
1.500950439,0.0671244,0.0721038,,,,
1.501950406,0.0626486,0.0720112,,,,
1.502950373,0.0761047,0.0720565,,,,
1.50395034,0.0858047,0.0722203,,,,
1.504950307,0.0841437,0.0723778,,,,
1.505950274,0.0830386,0.0725352,,,,
1.506950241,0.079267,0.0726224,,,,
1.507950208,0.0706912,0.0726123,,,,
1.508950175,0.0678059,0.0726791,,,,
1.509950142,0.0739059,0.072869,,,,
1.510950109,0.0811801,0.0730074,,,,
1.511950076,0.0837066,0.0730248,,,,
1.512950043,0.0794251,0.0730174,,,,
1.51395001,0.0707869,0.0730528,,,,
1.514949977,0.0694407,0.0731864,,,,
1.515949944,0.0784368,0.0734163,,,,
1.516949911,0.0832846,0.073518,,,,
1.517949878,0.0805793,0.0734169,,,,
1.518949845,0.0828799,0.07341,,,,
1.519949812,0.0846634,0.0735289,,,,
1.520949779,0.0720522,0.0735084,,,,
1.521949746,0.0608562,0.0734547,,,,
1.522949713,0.0667166,0.0735716,,,,
1.52394968,0.0767467,0.0737086,,,,
1.524949647,0.0803899,0.0737384,,,,
1.525949614,0.0731371,0.0736374,,,,
1.526949581,0.059763,0.0733825,,,,
1.527949548,0.0612102,0.0732089,,,,
1.528949515,0.0773342,0.0733507,,,,
1.529949482,0.0886076,0.0736564,,,,
1.530949449,0.0868592,0.0738607,,,,
1.531949416,0.0768385,0.0739133,,,,
1.532949383,0.0712742,0.0739434,,,,
1.53394935,0.0710304,0.0739863,,,,
1.534949317,0.070295,0.0739728,,,,
1.535949283,0.0759799,0.0739674,,,,
1.53694925,0.0813155,0.0739821,,,,
1.537949217,0.0755789,0.0738962,,,,
1.538949184,0.0703651,0.0737431,,,,
1.539949151,0.0706814,0.0736064,,,,
1.540949118,0.0720921,0.073507,,,,
1.541949085,0.0755926,0.0734581,,,,
1.542949052,0.0792513,0.0734081,,,,
1.543949019,0.0806173,0.0733929,,,,
1.544948986,0.0815415,0.0735064,,,,
1.545948953,0.0844682,0.0736576,,,,
1.54694892,0.0822117,0.0737413,,,,
1.547948887,0.0695405,0.0737684,,,,
1.548948854,0.0648207,0.0737754,,,,
1.549948821,0.0750827,0.0738245,,,,
1.550948788,0.0826927,0.0739351,,,,
1.551948755,0.0872382,0.0740924,,,,
1.552948722,0.0897532,0.0742701,,,,
1.553948689,0.0797606,0.0744125,,,,
1.554948656,0.0709019,0.0745526,,,,
1.555948623,0.0766297,0.074709,,,,
1.55694859,0.0810232,0.0748056,,,,
1.557948557,0.0788857,0.0748572,,,,
1.558948524,0.0799389,0.0749,,,,
1.559948491,0.0778728,0.0749004,,,,
1.560948458,0.0734941,0.0749226,,,,
1.561948425,0.078149,0.0750746,,,,
1.562948392,0.0793242,0.0752344,,,,
1.563948359,0.0703869,0.0751819,,,,
1.564948326,0.0708402,0.0749884,,,,
1.565948293,0.0806146,0.0748854,,,,
1.56694826,0.0841881,0.0749353,,,,
1.567948227,0.0763746,0.0749905,,,,
1.568948194,0.0573441,0.0748236,,,,
1.569948161,0.0477938,0.0745049,,,,
1.570948128,0.0655775,0.0743947,,,,
1.571948095,0.0849041,0.0745323,,,,
1.572948062,0.0835771,0.0746406,,,,
1.573948029,0.0779411,0.0746464,,,,
1.574947996,0.0758701,0.0746255,,,,
1.575947963,0.0701734,0.0745831,,,,
1.57694793,0.0685446,0.0745547,,,,
1.577947897,0.0734943,0.0745689,,,,
1.578947864,0.0735201,0.0745536,,,,
1.579947831,0.0702932,0.0744837,,,,
1.580947798,0.0727789,0.0744449,,,,
1.581947765,0.0783084,0.0745076,,,,
1.582947732,0.0848394,0.0746907,,,,
1.583947699,0.0914528,0.0749514,,,,
1.584947666,0.0880511,0.0751546,,,,
1.585947633,0.0758459,0.0752277,,,,
1.5869476,0.0705603,0.0752743,,,,
1.587947567,0.077766,0.0754255,,,,
1.588947534,0.0908764,0.0757169,,,,
1.5899475,0.0982526,0.0760701,,,,
1.590947467,0.0887132,0.0762716,,,,
1.591947434,0.0676873,0.0762,,,,
1.592947401,0.0558666,0.0760522,,,,
1.593947368,0.0610178,0.0760152,,,,
1.594947335,0.0686813,0.0759987,,,,
1.595947302,0.0689306,0.0759292,,,,
1.596947269,0.0684318,0.0758686,,,,
1.597947236,0.0691193,0.0758046,,,,
1.598947203,0.0662416,0.0756656,,,,
1.59994717,0.0621184,0.0754981,,,,
1.600947137,0.0610013,0.0754369,,,,
1.601947104,0.0651066,0.0754615,,,,
1.602947071,0.0729581,0.07543,,,,
1.603947038,0.0764759,0.0753367,,,,
1.604947005,0.0718057,0.0752133,,,,
1.605946972,0.0666172,0.0750491,,,,
1.606946939,0.0689574,0.074946,,,,
1.607946906,0.0786262,0.0750254,,,,
1.608946873,0.0879094,0.0752264,,,,
1.60994684,0.0861614,0.0753489,,,,
1.610946807,0.0772661,0.0753098,,,,
1.611946774,0.0757428,0.0752302,,,,
1.612946741,0.0781232,0.0752171,,,,
1.613946708,0.0760939,0.0752702,,,,
1.614946675,0.0774618,0.0753504,,,,
1.615946642,0.0848415,0.0754145,,,,
1.616946609,0.0864727,0.0754464,,,,
1.617946576,0.0779683,0.0754202,,,,
1.618946543,0.0707583,0.075299,,,,
1.61994651,0.0721259,0.0751737,,,,
1.620946477,0.0762708,0.0752158,,,,
1.621946444,0.0807622,0.0754149,,,,
1.622946411,0.0852021,0.0755998,,,,
1.623946378,0.0796594,0.0756289,,,,
1.624946345,0.0650936,0.0754759,,,,
1.625946312,0.060845,0.075353,,,,
1.626946279,0.0707163,0.0754625,,,,
1.627946246,0.0790477,0.0756409,,,,
1.628946213,0.079303,0.0756606,,,,
1.62994618,0.0759509,0.075534,,,,
1.630946147,0.073776,0.0754032,,,,
1.631946114,0.0742876,0.0753777,,,,
1.632946081,0.0747589,0.0754125,,,,
1.633946048,0.0757494,0.0754597,,,,
1.634946015,0.0798124,0.0755549,,,,
1.635945982,0.0820603,0.0756157,,,,
1.636945949,0.0744009,0.0755466,,,,
1.637945916,0.0611941,0.0754027,,,,
1.638945883,0.0618807,0.0753179,,,,
1.63994585,0.082313,0.0754342,,,,
1.640945817,0.0974212,0.0756875,,,,
1.641945784,0.086659,0.0757981,,,,
1.642945751,0.0683357,0.075689,,,,
1.643945717,0.0650466,0.0755333,,,,
1.644945684,0.0679201,0.0753971,,,,
1.645945651,0.0676069,0.0752284,,,,
1.646945618,0.0705784,0.0751121,,,,
1.647945585,0.076863,0.0751853,,,,
1.648945552,0.0794938,0.0753321,,,,
1.649945519,0.0766708,0.0753479,,,,
1.650945486,0.0713792,0.0752348,,,,
1.651945453,0.0670397,0.0750328,,,,
1.65294542,0.0694438,0.0748297,,,,
1.653945387,0.0812105,0.0748442,,,,
1.654945354,0.0882396,0.0750176,,,,
1.655945321,0.0781656,0.075033,,,,
1.656945288,0.0646711,0.0748694,,,,
1.657945255,0.0653492,0.0747341,,,,
1.658945222,0.0754715,0.0746894,,,,
1.659945189,0.0809142,0.0747198,,,,
1.660945156,0.0826681,0.0748116,,,,
1.661945123,0.0831521,0.0748616,,,,
1.66294509,0.075954,0.0748279,,,,
1.663945057,0.0723753,0.0748478,,,,
1.664945024,0.0787061,0.0749264,,,,
1.665944991,0.0805845,0.0749261,,,,
1.666944958,0.0842641,0.0749269,,,,
1.667944925,0.0902257,0.0750654,,,,
1.668944892,0.0771943,0.0752639,,,,
1.669944859,0.057227,0.0753582,,,,
1.670944826,0.0524482,0.0752269,,,,
1.671944793,0.0583715,0.0749616,,,,
1.67294476,0.0731779,0.0748576,,,,
1.673944727,0.0913863,0.0749921,,,,
1.674944694,0.0947241,0.0751806,,,,
1.675944661,0.0828849,0.0753077,,,,
1.676944628,0.0710357,0.0753326,,,,
1.677944595,0.0653855,0.0752516,,,,
1.678944562,0.0661522,0.0751779,,,,
1.679944529,0.0724868,0.0751998,,,,
1.680944496,0.0774765,0.0752468,,,,
1.681944463,0.0742201,0.0752059,,,,
1.68294443,0.0668956,0.0750265,,,,
1.683944397,0.0662603,0.0747745,,,,
1.684944364,0.0710617,0.0746046,,,,
1.685944331,0.0718783,0.074565,,,,
1.686944298,0.0728912,0.0745883,,,,
1.687944265,0.0817976,0.0746286,,,,
1.688944232,0.0879835,0.0745997,,,,
1.689944199,0.0769053,0.0743862,,,,
1.690944166,0.0581741,0.0740808,,,,
1.691944133,0.0566325,0.0739703,,,,
1.6929441,0.0718402,0.07413,,,,
1.693944067,0.0811905,0.0743317,,,,
1.694944034,0.0810963,0.0744559,,,,
1.695944001,0.0792617,0.0745592,,,,
1.696943968,0.0754517,0.0746294,,,,
1.697943934,0.0717531,0.0746557,,,,
1.698943901,0.0720951,0.0747142,,,,
1.699943868,0.0770267,0.0748633,,,,
1.700943835,0.0799731,0.075053,,,,
1.701943802,0.0749796,0.0751518,,,,
1.702943769,0.0701512,0.0751237,,,,
1.703943736,0.0710984,0.0750699,,,,
1.704943703,0.0733903,0.0750858,,,,
1.70594367,0.0783761,0.0752034,,,,
1.706943637,0.0844782,0.0753586,,,,
1.707943604,0.083832,0.0754106,,,,
1.708943571,0.0798226,0.0753298,,,,
1.709943538,0.0797503,0.0752657,,,,
1.710943505,0.0828192,0.0753212,,,,
1.711943472,0.0852707,0.0754165,,,,
1.712943439,0.0841362,0.0754766,,,,
1.713943406,0.0805213,0.0755209,,,,
1.714943373,0.0755113,0.0755014,,,,
1.71594334,0.0667844,0.0753208,,,,
1.716943307,0.0608396,0.0750645,,,,
1.717943274,0.0677116,0.0749619,,,,
1.718943241,0.0799758,0.0750541,,,,
1.719943208,0.0839102,0.0751719,,,,
1.720943175,0.0799314,0.0752085,,,,
1.721943142,0.0730406,0.0751313,,,,
1.722943109,0.0654052,0.0749333,,,,
1.723943076,0.0620018,0.0747568,,,,
1.724943043,0.0657855,0.0747637,,,,
1.72594301,0.0741177,0.0748964,,,,
1.726942977,0.0814964,0.0750042,,,,
1.727942944,0.0798011,0.0750117,,,,
1.728942911,0.0697981,0.0749167,,,,
1.729942878,0.0660436,0.0748176,,,,
1.730942845,0.073517,0.074815,,,,
1.731942812,0.0805798,0.074878,,,,
1.732942779,0.0796665,0.074927,,,,
1.733942746,0.0763079,0.0749326,,,,
1.734942713,0.0775446,0.0749099,,,,
1.73594268,0.0792827,0.0748822,,,,
1.736942647,0.0754127,0.0748923,,,,
1.737942614,0.0721476,0.0750018,,,,
1.738942581,0.0794552,0.0751776,,,,
1.739942548,0.0924914,0.0752793,,,,
1.740942515,0.0954298,0.0752594,,,,
1.741942482,0.0822656,0.0752155,,,,
1.742942449,0.0638906,0.075171,,,,
1.743942416,0.0619595,0.0751402,,,,
1.744942383,0.0823288,0.0752843,,,,
1.74594235,0.100772,0.0756159,,,,
1.746942317,0.0995292,0.0759054,,,,
1.747942284,0.0878711,0.0760155,,,,
1.748942251,0.080558,0.0760261,,,,
1.749942218,0.0773547,0.076033,,,,
1.750942185,0.0720268,0.0760395,,,,
1.751942151,0.0750969,0.07612,,,,
1.752942118,0.0885657,0.0763112,,,,
1.753942085,0.0857228,0.0763564,,,,
1.754942052,0.0622828,0.0760968,,,,
1.755942019,0.0482941,0.0757981,,,,
1.756941986,0.0530681,0.0756821,,,,
1.757941953,0.0614422,0.075643,,,,
1.75894192,0.0668546,0.0755568,,,,
1.759941887,0.0693322,0.075441,,,,
1.760941854,0.0681065,0.0752954,,,,
1.761941821,0.0654474,0.0751183,,,,
1.762941788,0.0645175,0.075004,,,,
1.763941755,0.0664303,0.0749445,,,,
1.764941722,0.0682234,0.0748397,,,,
1.765941689,0.0675877,0.0747097,,,,
1.766941656,0.0693844,0.0745609,,,,
1.767941623,0.0744053,0.0744027,,,,
1.76894159,0.0751148,0.0743819,,,,
1.769941557,0.0732148,0.0745418,,,,
1.770941524,0.0771236,0.0747886,,,,
1.771941491,0.0841597,0.0750464,,,,
1.772941458,0.0854926,0.0751696,,,,
1.773941425,0.0821979,0.0750777,,,,
1.774941392,0.0823902,0.0749544,,,,
1.775941359,0.0827442,0.074953,,,,
1.776941326,0.0774493,0.0750171,,,,
1.777941293,0.0731394,0.0750946,,,,
1.77894126,0.0744938,0.0751781,,,,
1.779941227,0.076223,0.0752154,,,,
1.780941194,0.0696801,0.0751375,,,,
1.781941161,0.0651455,0.0750467,,,,
1.782941128,0.0793947,0.0751717,,,,
1.783941095,0.0936598,0.0754457,,,,
1.784941062,0.0902772,0.0756378,,,,
1.785941029,0.0854265,0.0757733,,,,
1.786940996,0.0867917,0.0759123,,,,
1.787940963,0.0796079,0.0758904,,,,
1.78894093,0.0577205,0.0755878,,,,
1.789940897,0.0433939,0.0752527,,,,
1.790940864,0.0579705,0.0752507,,,,
1.791940831,0.0825602,0.0755099,,,,
1.792940798,0.0906546,0.0756981,,,,
1.793940765,0.0869525,0.0757557,,,,
1.794940732,0.0799446,0.0757442,,,,
1.795940699,0.0716964,0.0756685,,,,
1.796940666,0.069464,0.0756087,,,,
1.797940633,0.069106,0.0755822,,,,
1.7989406,0.0667472,0.0755287,,,,
1.799940567,0.0693314,0.0754518,,,,
1.800940534,0.0700839,0.0753529,,,,
1.801940501,0.0657128,0.0752602,,,,
1.802940468,0.0684039,0.0752427,,,,
1.803940435,0.0758162,0.0752899,,,,
1.804940402,0.0787395,0.0753434,,,,
1.805940368,0.0781438,0.0753411,,,,
1.806940335,0.0749178,0.0752455,,,,
1.807940302,0.0705135,0.0751123,,,,
1.808940269,0.0694797,0.0750088,,,,
1.809940236,0.0739255,0.0749506,,,,
1.810940203,0.0795949,0.0749184,,,,
1.81194017,0.0795736,0.0748614,,,,
1.812940137,0.0766914,0.0747869,,,,
1.813940104,0.0759918,0.0747416,,,,
1.814940071,0.0735349,0.0747219,,,,
1.815940038,0.0707155,0.0747612,,,,
1.816940005,0.0743541,0.0748963,,,,
1.817939972,0.0808266,0.0750275,,,,
1.818939939,0.0834307,0.075062,,,,
1.819939906,0.0826649,0.0750496,,,,
1.820939873,0.078882,0.0750391,,,,
1.82193984,0.0742968,0.0750517,,,,
1.822939807,0.0759543,0.0751571,,,,
1.823939774,0.0822842,0.07536,,,,
1.824939741,0.0856846,0.075559,,,,
1.825939708,0.0852824,0.0756706,,,,
1.826939675,0.0822785,0.0756784,,,,
1.827939642,0.0766602,0.075647,,,,
1.828939609,0.0721466,0.0756705,,,,
1.829939576,0.0780372,0.0757904,,,,
1.830939543,0.0953605,0.0760089,,,,
1.83193951,0.101691,0.07622,,,,
1.832939477,0.0859865,0.0762832,,,,
1.833939444,0.0726976,0.0762471,,,,
1.834939411,0.0742554,0.0762142,,,,
1.835939378,0.0785329,0.0762067,,,,
1.836939345,0.0850548,0.0763031,,,,
1.837939312,0.0959305,0.0765409,,,,
1.838939279,0.09835,0.0767299,,,,
1.839939246,0.091152,0.0767165,,,,
1.840939213,0.0852462,0.0766147,,,,
1.84193918,0.077498,0.076567,,,,
1.842939147,0.0733723,0.0766618,,,,
1.843939114,0.0845024,0.0768872,,,,
1.844939081,0.0899495,0.0769634,,,,
1.845939048,0.0759292,0.076715,,,,
1.846939015,0.0626785,0.0763465,,,,
1.847938982,0.0609264,0.0760771,,,,
1.848938949,0.0684285,0.0759558,,,,
1.849938916,0.0734421,0.0759166,,,,
1.850938883,0.0645128,0.0758415,,,,
1.85193885,0.0604882,0.0756954,,,,
1.852938817,0.0674477,0.0754842,,,,
1.853938784,0.0601494,0.0752285,,,,
1.854938751,0.0446989,0.0750527,,,,
1.855938718,0.0496484,0.0750662,,,,
1.856938685,0.0683512,0.075219,,,,
1.857938652,0.0764873,0.0753695,,,,
1.858938619,0.0720367,0.0754213,,,,
1.859938585,0.0641292,0.0753693,,,,
1.860938552,0.060017,0.0752884,,,,
1.861938519,0.066247,0.0752964,,,,
1.862938486,0.077581,0.075427,,,,
1.863938453,0.0837327,0.0756,,,,
1.86493842,0.0842273,0.0757601,,,,
1.865938387,0.0816246,0.0759004,,,,
1.866938354,0.0760752,0.0759673,,,,
1.867938321,0.0700573,0.0759239,,,,
1.868938288,0.0707759,0.0758805,,,,
1.869938255,0.0780783,0.0759291,,,,
1.870938222,0.0818396,0.0759763,,,,
1.871938189,0.0806334,0.075941,,,,
1.872938156,0.0765488,0.0758516,,,,
1.873938123,0.070046,0.0757301,,,,
1.87493809,0.0706953,0.0756131,,,,
1.875938057,0.0804043,0.0755897,,,,
1.876938024,0.0844138,0.0756593,,,,
1.877937991,0.0753192,0.0756811,,,,
1.878937958,0.0656015,0.0755922,,,,
1.879937925,0.0665178,0.0754952,,,,
1.880937892,0.071399,0.0755124,,,,
1.881937859,0.0746969,0.0756079,,,,
1.882937826,0.0788482,0.0756024,,,,
1.883937793,0.0803952,0.0754698,,,,
1.88493776,0.078901,0.075356,,,,
1.885937727,0.07951,0.0752968,,,,
1.886937694,0.0804124,0.075233,,,,
1.887937661,0.0806645,0.0752436,,,,
1.888937628,0.0825899,0.0754923,,,,
1.889937595,0.0829923,0.0758883,,,,
1.890937562,0.0824368,0.0761329,,,,
1.891937529,0.0881973,0.0761893,,,,
1.892937496,0.0969215,0.076252,,,,
1.893937463,0.0942516,0.076325,,,,
1.89493743,0.0828787,0.0763543,,,,
1.895937397,0.081043,0.0764478,,,,
1.896937364,0.0858948,0.0766121,,,,
1.897937331,0.0827362,0.0767484,,,,
1.898937298,0.0740707,0.0768216,,,,
1.899937265,0.0679457,0.0768078,,,,
1.900937232,0.0669251,0.0767762,,,,
1.901937199,0.0706561,0.0768256,,,,
1.902937166,0.077803,0.0769196,,,,
1.903937133,0.0878104,0.0770396,,,,
1.9049371,0.0935841,0.077188,,,,
1.905937067,0.0849974,0.0772565,,,,
1.906937034,0.0686839,0.0771942,,,,
1.907937001,0.0659772,0.0771488,,,,
1.908936968,0.0793576,0.0772476,,,,
1.909936935,0.0808403,0.0773168,,,,
1.910936902,0.059186,0.0771127,,,,
1.911936869,0.0505697,0.0768226,,,,
1.912936836,0.073973,0.0767955,,,,
1.913936802,0.0878759,0.0769143,,,,
1.914936769,0.0746347,0.0769253,,,,
1.915936736,0.0713986,0.0769321,,,,
1.916936703,0.0851048,0.0770396,,,,
1.91793667,0.0899849,0.0771312,,,,
1.918936637,0.0808538,0.0771054,,,,
1.919936604,0.0660008,0.0769388,,,,
1.920936571,0.0555767,0.0767057,,,,
1.921936538,0.0606848,0.0765696,,,,
1.922936505,0.0768203,0.0765783,,,,
1.923936472,0.0831584,0.076587,,,,
1.924936439,0.0718582,0.0764488,,,,
1.925936406,0.0582717,0.0761787,,,,
1.926936373,0.0618221,0.0759741,,,,
1.92793634,0.0850058,0.0760575,,,,
1.928936307,0.101415,0.0763502,,,,
1.929936274,0.0954091,0.076524,,,,
1.930936241,0.0833826,0.0764042,,,,
1.931936208,0.0701024,0.0760883,,,,
1.932936175,0.0556559,0.075785,,,,
1.933936142,0.0543141,0.0756012,,,,
1.934936109,0.0666306,0.0755249,,,,
1.935936076,0.0782476,0.0755221,,,,
1.936936043,0.0810681,0.0754822,,,,
1.93793601,0.0774329,0.0752972,,,,
1.938935977,0.0740444,0.0750542,,,,
1.939935944,0.0755136,0.0748978,,,,
1.940935911,0.0796106,0.0748414,,,,
1.941935878,0.0810287,0.0748767,,,,
1.942935845,0.0785297,0.0749283,,,,
1.943935812,0.0718744,0.074802,,,,
1.944935779,0.0594832,0.0744973,,,,
1.945935746,0.0526939,0.074265,,,,
1.946935713,0.0642026,0.0742802,,,,
1.94793568,0.0754789,0.0744258,,,,
1.948935647,0.0747884,0.0744894,,,,
1.949935614,0.0819088,0.074574,,,,
1.950935581,0.089828,0.0748272,,,,
1.951935548,0.0795477,0.0750178,,,,
1.952935515,0.0735377,0.0750787,,,,
1.953935482,0.0851843,0.075329,,,,
1.954935449,0.087283,0.0757549,,,,
1.955935416,0.0770814,0.0760292,,,,
1.956935383,0.0771541,0.0761172,,,,
1.95793535,0.0791345,0.0761437,,,,
1.958935317,0.0688252,0.0761116,,,,
1.959935284,0.056932,0.0760396,,,,
1.960935251,0.0605298,0.0760447,,,,
1.961935218,0.0805748,0.076188,,,,
1.962935185,0.0942423,0.0763546,,,,
1.963935152,0.0959219,0.0764765,,,,
1.964935119,0.0996396,0.0766306,,,,
1.965935086,0.0898385,0.0767128,,,,
1.966935052,0.0607005,0.076559,,,,
1.967935019,0.0465487,0.0763239,,,,
1.968934986,0.0570965,0.0761872,,,,
1.969934953,0.070494,0.0761113,,,,
1.97093492,0.0770397,0.0760633,,,,
1.971934887,0.0828448,0.0760854,,,,
1.972934854,0.0966692,0.0762866,,,,
1.973934821,0.106699,0.0766532,,,,
1.974934788,0.100518,0.0769514,,,,
1.975934755,0.0955916,0.0771033,,,,
1.976934722,0.0893469,0.0771526,,,,
1.977934689,0.0665088,0.0770645,,,,
1.978934656,0.0564873,0.0769733,,,,
1.979934623,0.078424,0.0770924,,,,
1.98093459,0.0998965,0.0773774,,,,
1.981934557,0.0945879,0.0775763,,,,
1.982934524,0.0748553,0.0775364,,,,
1.983934491,0.0622514,0.0773549,,,,
1.984934458,0.0583418,0.0771493,,,,
1.985934425,0.0650824,0.0770051,,,,
1.986934392,0.0908174,0.0771091,,,,
1.987934359,0.114731,0.0774498,,,,
1.988934326,0.11986,0.0778225,,,,
1.989934293,0.127691,0.0782695,,,,
1.99093426,0.126721,0.0787123,,,,
1.991934227,0.0827122,0.0786574,,,,
1.992934194,0.0471805,0.07816,,,,
1.993934161,0.0791725,0.0780092,,,,
1.994934128,0.130753,0.078488,,,,
1.995934095,0.156099,0.0792385,,,,
1.996934062,0.163456,0.0800142,,,,
1.997934029,0.144422,0.080631,,,,
1.998933996,0.109238,0.0809827,,,,
1.999933963,0.0891078,0.0811943,,,,
2.00093393,0.0619512,0.0811446,,,,
2.001933897,0.0212063,0.0806501,,,,
2.002933864,0.0265637,0.0801377,,,,
2.003933831,0.0640512,0.0799001,,,,
2.004933798,0.0586572,0.0795508,,,,
2.005933765,0.0364882,0.0790657,,,,
2.006933732,0.0483561,0.0788624,,,,
2.007933699,0.0474294,0.078677,,,,
2.008933666,0.00781059,0.0779615,,,,
2.009933633,0.00254361,0.0771785,,,,
2.0109336,0.0470614,0.0770573,,,,
2.011933567,0.0539532,0.0770911,,,,
2.012933534,0.0122088,0.0764735,,,,
2.013933501,0.00739736,0.0756687,,,,
2.014933468,0.0694683,0.075617,,,,
2.015933435,0.137655,0.0762796,,,,
2.016933402,0.15056,0.0769341,,,,
2.017933369,0.116069,0.077195,,,,
2.018933336,0.0881406,0.0772678,,,,
2.019933303,0.100779,0.0776156,,,,
2.020933269,0.136808,0.0784279,,,,
2.021933236,0.171468,0.0795358,,,,
2.022933203,0.203062,0.0807982,,,,
2.02393317,0.216634,0.0821329,,,,
2.024933137,0.219149,0.0836059,,,,
2.025933104,0.251087,0.085534,,,,
2.026933071,0.280779,0.0877236,,,,
2.027933038,0.227689,0.0891504,,,,
2.028933005,0.105532,0.0891916,,,,
2.029932972,0.0220471,0.0884579,,,,
2.030932939,0.056756,0.0881917,,,,
2.031932906,0.171457,0.0892052,,,,
2.032932873,0.224671,0.0908954,,,,
2.03393284,0.123799,0.0915902,,,,
2.034932807,-0.0451869,0.0913758,,,,
2.035932774,-0.120991,0.0918032,,,,
2.036932741,-0.0893696,0.0918862,,,,
2.037932708,-0.045272,0.0915646,,,,
2.038932675,-0.000308015,0.0908273,,,,
2.039932642,0.0284487,0.0903566,,,,
2.040932609,-0.0234602,0.0897951,,,,
2.041932576,-0.102442,0.0900092,,,,
2.042932543,-0.1292,0.0905159,,,,
2.04393251,-0.119924,0.0909964,,,,
2.044932477,-0.0871692,0.0912733,,,,
2.045932444,-0.0334719,0.0910811,,,,
2.046932411,0.025369,0.0906927,,,,
2.047932378,0.0757424,0.0906954,,,,
2.048932345,0.0832216,0.0907797,,,,
2.049932312,0.0877986,0.0908386,,,,
2.050932279,0.17807,0.091721,,,,
2.051932246,0.295845,0.093884,,,,
2.052932213,0.312363,0.0962722,,,,
2.05393218,0.173385,0.0971543,,,,
2.054932147,-0.0532079,0.0968135,,,,
2.055932114,-0.158557,0.0976283,,,,
2.056932081,-0.028424,0.097141,,,,
2.057932048,0.18097,0.0981593,,,,
2.058932015,0.239009,0.0998612,,,,
2.059931982,0.130105,0.100593,,,,
2.060931949,0.0138671,0.100126,,,,
2.061931916,-0.0569171,0.0998897,,,,
2.062931883,-0.0731329,0.0996786,,,,
2.06393185,-0.00176797,0.0987371,,,,
2.064931817,0.0428455,0.0981691,,,,
2.065931784,0.00866155,0.0973573,,,,
2.066931751,0.0259424,0.0970098,,,,
2.067931718,0.0806555,0.0973508,,,,
2.068931685,0.0601777,0.0973816,,,,
2.069931652,-0.00208465,0.0966975,,,,
2.070931619,-0.0305042,0.0962322,,,,
2.071931586,-0.0337463,0.0957412,,,,
2.072931553,-0.00952753,0.0948698,,,,
2.07393152,0.102393,0.0948267,,,,
2.074931486,0.220334,0.0960249,,,,
2.075931453,0.228955,0.0973585,,,,
2.07693142,0.210231,0.0985674,,,,
2.077931387,0.185404,0.0997563,,,,
2.078931354,0.0845215,0.100037,,,,
2.079931321,-0.00292465,0.0992817,,,,
2.080931288,0.030767,0.0985904,,,,
2.081931255,0.109756,0.0987421,,,,
2.082931222,0.132529,0.0993188,,,,
2.083931189,0.127353,0.0999698,,,,
2.084931156,0.0727449,0.100114,,,,
2.085931123,-0.0737167,0.1002,,,,
2.08693109,-0.111464,0.100407,,,,
2.087931057,0.0790369,0.10005,,,,
2.088931024,0.212958,0.100981,,,,
2.089930991,0.128383,0.100988,,,,
2.090930958,0.0405388,0.100126,,,,
2.091930925,0.0284414,0.0995831,,,,
2.092930892,0.00145891,0.0991259,,,,
2.093930859,0.0134419,0.0984686,,,,
2.094930826,0.0660688,0.0978217,,,,
2.095930793,0.0787642,0.0970484,,,,
2.09693076,0.14026,0.0968164,,,,
2.097930727,0.276672,0.0981389,,,,
2.098930694,0.310863,0.100155,,,,
2.099930661,0.2145,0.101409,,,,
2.100930628,0.124183,0.102031,,,,
2.101930595,0.0925325,0.102745,,,,
2.102930562,0.0969651,0.103449,,,,
2.103930529,0.0765835,0.103574,,,,
2.104930496,0.00336865,0.103021,,,,
2.105930463,-0.0656159,0.103312,,,,
2.10693043,-0.0702243,0.103531,,,,
2.107930397,0.0378086,0.103435,,,,
2.108930364,0.192826,0.105285,,,,
2.109930331,0.231111,0.107571,,,,
2.110930298,0.168255,0.108783,,,,
2.111930265,0.152103,0.109764,,,,
2.112930232,0.194558,0.111588,,,,
2.113930199,0.182559,0.113339,,,,
2.114930166,0.0944732,0.113589,,,,
2.115930133,0.0400024,0.112613,,,,
2.1169301,0.018194,0.111289,,,,
2.117930067,-0.0784759,0.110913,,,,
2.118930034,-0.178526,0.111817,,,,
2.119930001,-0.0908125,0.111717,,,,
2.120929968,0.1655,0.112004,,,,
2.121929935,0.348315,0.113773,,,,
2.122929902,0.363423,0.115376,,,,
2.123929869,0.310733,0.116317,,,,
2.124929836,0.18838,0.11601,,,,
2.125929803,0.0326208,0.113825,,,,
2.12692977,-0.0424365,0.111442,,,,
2.127929737,-0.140532,0.11057,,,,
2.128929703,-0.296123,0.112476,,,,
2.12992967,-0.263986,0.114895,,,,
2.130929637,0.0149358,0.114477,,,,
2.131929604,0.277317,0.115536,,,,
2.132929571,0.342668,0.116716,,,,
2.133929538,0.257554,0.118053,,,,
2.134929505,0.123066,0.118832,,,,
2.135929472,0.109893,0.118721,,,,
2.136929439,0.252776,0.120355,,,,
2.137929406,0.26722,0.122575,,,,
2.138929373,0.0939111,0.123511,,,,
2.13992934,-0.0333848,0.12356,,,,
2.140929307,-0.0847718,0.124173,,,,
2.141929274,-0.0849061,0.123998,,,,
2.142929241,0.036684,0.123073,,,,
2.143929208,0.179272,0.123666,,,,
2.144929175,0.123762,0.124032,,,,
2.145929142,-0.0380001,0.124077,,,,
2.146929109,-0.00422239,0.123866,,,,
2.147929076,0.0725643,0.123834,,,,
2.148929043,-0.0970872,0.123973,,,,
2.14992901,-0.312157,0.126216,,,,
2.150928977,-0.379714,0.128233,,,,
2.151928944,-0.289445,0.128169,,,,
2.152928911,-0.0412731,0.125458,,,,
2.153928878,0.108935,0.124813,,,,
2.154928845,0.0335436,0.124617,,,,
2.155928812,-0.0294602,0.123326,,,,
2.156928779,0.00625743,0.123104,,,,
2.157928746,0.022546,0.12152,,,,
2.158928713,-0.0245067,0.119375,,,,
2.15992868,-0.0634358,0.118708,,,,
2.160928647,-0.0190863,0.11876,,,,
2.161928614,0.0754355,0.118945,,,,
2.162928581,0.150305,0.119717,,,,
2.163928548,0.183221,0.121532,,,,
2.164928515,0.164983,0.122753,,,,
2.165928482,0.137525,0.124042,,,,
2.166928449,0.164434,0.125427,,,,
2.167928416,0.171294,0.126333,,,,
2.168928383,0.0908337,0.12664,,,,
2.16992835,0.0578562,0.127197,,,,
2.170928317,0.164455,0.128537,,,,
2.171928284,0.287013,0.131069,,,,
2.172928251,0.312275,0.134097,,,,
2.173928218,0.233849,0.135412,,,,
2.174928185,0.045513,0.133663,,,,
2.175928152,-0.106454,0.132438,,,,
2.176928119,-0.00638899,0.1304,,,,
2.177928086,0.192737,0.130473,,,,
2.178928053,0.224187,0.13187,,,,
2.17992802,0.145227,0.133293,,,,
2.180927987,0.107928,0.134064,,,,
2.181927954,0.138515,0.134352,,,,
2.18292792,0.17962,0.134823,,,,
2.183927887,0.170359,0.135253,,,,
2.184927854,0.133875,0.135864,,,,
2.185927821,0.123339,0.136361,,,,
2.186927788,0.0889534,0.136135,,,,
2.187927755,-0.0320399,0.135666,,,,
2.188927722,-0.0698481,0.134234,,,,
2.189927689,0.141757,0.134368,,,,
2.190927656,0.334534,0.137308,,,,
2.191927623,0.246615,0.13949,,,,
2.19292759,0.0874727,0.14035,,,,
2.193927557,0.0588595,0.140804,,,,
2.194927524,0.0916015,0.141059,,,,
2.195927491,0.109698,0.141369,,,,
2.196927458,0.0872647,0.140839,,,,
2.197927425,0.0676302,0.138748,,,,
2.198927392,0.111379,0.136754,,,,
2.199927359,0.107181,0.13568,,,,
2.200927326,0.0223354,0.134662,,,,
2.201927293,0.056465,0.134301,,,,
2.20292726,0.178841,0.13512,,,,
2.203927227,0.190933,0.136264,,,,
2.204927194,0.165435,0.137884,,,,
2.205927161,0.210479,0.139333,,,,
2.206927128,0.206342,0.140694,,,,
2.207927095,0.0492289,0.140808,,,,
2.208927062,-0.0934456,0.139814,,,,
2.209927029,-0.0246309,0.13775,,,,
2.210926996,0.0753391,0.13682,,,,
2.211926963,-0.00391696,0.135339,,,,
2.21292693,-0.0780643,0.134174,,,,
2.213926897,-0.0184899,0.132533,,,,
2.214926864,0.0213931,0.131802,,,,
2.215926831,0.00343312,0.131436,,,,
2.216926798,0.0396392,0.131651,,,,
2.217926765,0.142561,0.132292,,,,
2.218926732,0.175824,0.132265,,,,
2.219926699,0.0857997,0.132215,,,,
2.220926666,0.0577124,0.131137,,,,
2.221926633,0.133378,0.128987,,,,
2.2229266,0.0850454,0.126204,,,,
2.223926567,-0.0820419,0.123917,,,,
2.224926534,-0.103701,0.12307,,,,
2.225926501,0.047076,0.123214,,,,
2.226926468,0.10778,0.123868,,,,
2.227926435,-0.00501698,0.122513,,,,
2.228926402,-0.072762,0.120279,,,,
2.229926369,0.000100049,0.11764,,,,
2.230926336,0.114678,0.118638,,,,
2.231926303,0.192667,0.117791,,,,
2.23292627,0.192361,0.116288,,,,
2.233926237,0.164551,0.115358,,,,
2.234926204,0.0952093,0.115079,,,,
2.235926171,-0.116345,0.115144,,,,
2.236926137,-0.284657,0.115463,,,,
2.237926104,-0.215608,0.114947,,,,
2.238926071,-0.0632452,0.11464,,,,
2.239926038,0.0236341,0.114543,,,,
2.240926005,0.0284956,0.11398,,,,
2.241925972,0.00225738,0.113153,,,,
2.242925939,0.0499914,0.113286,,,,
2.243925906,0.105505,0.112549,,,,
2.244925873,0.0898849,0.11221,,,,
2.24592584,0.125115,0.113081,,,,
2.246925807,0.194443,0.114983,,,,
2.247925774,0.160816,0.115866,,,,
2.248925741,0.0833706,0.115729,,,,
2.249925708,0.0477776,0.113085,,,,
2.250925675,0.0458924,0.109747,,,,
2.251925642,0.094722,0.107799,,,,
2.252925609,0.131596,0.108703,,,,
2.253925576,0.0370778,0.107984,,,,
2.254925543,-0.0643331,0.108292,,,,
2.25592551,0.0321336,0.108319,,,,
2.256925477,0.195196,0.110208,,,,
2.257925444,0.192983,0.111912,,,,
2.258925411,0.119156,0.112859,,,,
2.259925378,0.174667,0.113971,,,,
2.260925345,0.222805,0.116008,,,,
2.261925312,0.0398597,0.115653,,,,
2.262925279,-0.164818,0.115798,,,,
2.263925246,-0.111669,0.115082,,,,
2.264925213,0.0265964,0.113698,,,,
2.26592518,0.0442589,0.112766,,,,
2.266925147,0.0538928,0.11166,,,,
2.267925114,0.0863222,0.110811,,,,
2.268925081,0.036483,0.110267,,,,
2.269925048,0.00608825,0.109749,,,,
2.270925015,0.123182,0.109337,,,,
2.271924982,0.228413,0.108751,,,,
2.272924949,0.164002,0.107268,,,,
2.273924916,0.072157,0.105651,,,,
2.274924883,0.0246194,0.105442,,,,
2.27592485,-0.0397646,0.104775,,,,
2.276924817,-0.022681,0.104938,,,,
2.277924784,0.0648045,0.103659,,,,
2.278924751,0.112063,0.102538,,,,
2.279924718,0.142797,0.102513,,,,
2.280924685,0.149338,0.102927,,,,
2.281924652,0.115593,0.102698,,,,
2.282924619,0.0698677,0.101601,,,,
2.283924586,0.0316145,0.100213,,,,
2.284924553,-0.00205424,0.098895,,,,
2.28592452,-0.0546756,0.0982083,,,,
2.286924487,-0.0571916,0.0978907,,,,
2.287924454,-0.0131968,0.0977023,,,,
2.288924421,-0.0396979,0.0974008,,,,
2.289924388,-0.0373926,0.0963571,,,,
2.290924354,0.0749032,0.0937608,,,,
2.291924321,0.140203,0.0926967,,,,
2.292924288,0.105459,0.0928766,,,,
2.293924255,0.048344,0.0927714,,,,
2.294924222,0.015075,0.0920061,,,,
2.295924189,0.0360432,0.0912696,,,,
2.296924156,0.0858968,0.0912559,,,,
2.297924123,0.090593,0.0914855,,,,
2.29892409,0.0599297,0.090971,,,,
2.299924057,0.0740631,0.0906399,,,,
2.300924024,0.121849,0.091635,,,,
2.301923991,0.150112,0.0925715,,,,
2.302923958,0.148168,0.0922647,,,,
2.303923925,0.0770911,0.0911263,,,,
2.304923892,0.0233228,0.0897052,,,,
2.305923859,0.118868,0.0887891,,,,
2.306923826,0.190412,0.0886298,,,,
2.307923793,0.136853,0.089506,,,,
2.30892376,0.133865,0.0899102,,,,
2.309923727,0.138522,0.0910491,,,,
2.310923694,0.0612544,0.0909083,,,,
2.311923661,0.0488508,0.0913576,,,,
2.312923628,0.113558,0.0917126,,,,
2.313923595,0.114291,0.0926706,,,,
2.314923562,0.0543425,0.0930001,,,,
2.315923529,0.0225959,0.0931917,,,,
2.316923496,0.0220047,0.0930154,,,,
2.317923463,-0.000317611,0.0915929,,,,
2.31892343,-0.0224964,0.0900596,,,,
2.319923397,0.0252059,0.0894537,,,,
2.320923364,0.100804,0.0898846,,,,
2.321923331,0.120567,0.0897565,,,,
2.322923298,0.119722,0.0901033,,,,
2.323923265,0.115188,0.0904347,,,,
2.324923232,0.060608,0.0900038,,,,
2.325923199,0.0328415,0.0898615,,,,
2.326923166,0.101316,0.0897968,,,,
2.327923133,0.148165,0.0912283,,,,
2.3289231,0.0906653,0.0914073,,,,
2.329923067,0.0171023,0.0915774,,,,
2.330923034,0.000310285,0.0904337,,,,
2.331923001,-0.0197163,0.0887042,,,,
2.332922968,-0.0726787,0.0875074,,,,
2.333922935,-0.0265126,0.086127,,,,
2.334922902,0.137661,0.0865515,,,,
2.335922869,0.209544,0.0874835,,,,
2.336922836,0.122463,0.0858615,,,,
2.337922803,0.0244212,0.0839497,,,,
2.33892277,-0.0127456,0.0834447,,,,
2.339922737,-0.0365458,0.0835738,,,,
2.340922704,-0.0444733,0.0837336,,,,
2.341922671,0.039235,0.0841034,,,,
2.342922638,0.168844,0.0852919,,,,
2.343922605,0.165324,0.0858901,,,,
2.344922571,0.0474792,0.085466,,,,
2.345922538,0.0316189,0.084531,,,,
2.346922505,0.102727,0.0836139,,,,
2.347922472,0.0936313,0.082942,,,,
2.348922439,0.0348691,0.082457,,,,
2.349922406,0.0199432,0.0821787,,,,
2.350922373,0.0543785,0.0822635,,,,
2.35192234,0.0878599,0.0821949,,,,
2.352922307,0.0758072,0.081637,,,,
2.353922274,0.0549899,0.0818162,,,,
2.354922241,0.0615562,0.0817884,,,,
2.355922208,0.0929388,0.0823964,,,,
2.356922175,0.124931,0.0816938,,,,
2.357922142,0.086984,0.0806338,,,,
2.358922109,-0.00425213,0.0794847,,,,
2.359922076,-0.0349551,0.0780876,,,,
2.360922043,0.00732537,0.0759328,,,,
2.36192201,0.0773443,0.0763077,,,,
2.362921977,0.169362,0.0763531,,,,
2.363921944,0.216404,0.0774005,,,,
2.364921911,0.146661,0.0786011,,,,
2.365921878,0.0614354,0.0787729,,,,
2.366921845,0.1052,0.079286,,,,
2.367921812,0.177672,0.0801994,,,,
2.368921779,0.0850828,0.0806854,,,,
2.369921746,-0.0785682,0.0814102,,,,
2.370921713,-0.107052,0.081249,,,,
2.37192168,-0.0338495,0.0793033,,,,
2.372921647,0.0430258,0.0780936,,,,
2.373921614,0.085722,0.0782292,,,,
2.374921581,0.0431018,0.078414,,,,
2.375921548,-0.00587062,0.0780751,,,,
2.376921515,-0.0032591,0.0778809,,,,
2.377921482,-0.0431589,0.0776644,,,,
2.378921449,-0.0702102,0.0772459,,,,
2.379921416,-0.0124815,0.0759427,,,,
2.380921383,0.0325756,0.0747751,,,,
2.38192135,0.0627019,0.0742462,,,,
2.382921317,0.122186,0.0747694,,,,
2.383921284,0.157934,0.0760326,,,,
2.384921251,0.164174,0.0776538,,,,
2.385921218,0.155751,0.0786645,,,,
2.386921185,0.106584,0.0791584,,,,
2.387921152,0.0506386,0.0795329,,,,
2.388921119,0.0367046,0.0795029,,,,
2.389921086,0.0819508,0.0799485,,,,
2.390921053,0.184954,0.081049,,,,
2.39192102,0.244181,0.0820888,,,,
2.392920987,0.170425,0.0827385,,,,
2.393920954,0.0836774,0.0830918,,,,
2.394920921,0.118985,0.0841309,,,,
2.395920888,0.122241,0.0849929,,,,
2.396920855,-0.0372795,0.0845067,,,,
2.397920822,-0.13017,0.0849025,,,,
2.398920788,-0.0639955,0.0849431,,,,
2.399920755,-0.021872,0.0844212,,,,
2.400920722,0.00915085,0.0832942,,,,
2.401920689,0.0906047,0.0826992,,,,
2.402920656,0.124923,0.0824667,,,,
2.403920623,0.0687584,0.0823834,,,,
2.40492059,-0.00297404,0.0821799,,,,
2.405920557,0.0122247,0.0811135,,,,
2.406920524,0.0962311,0.0801716,,,,
2.407920491,0.117869,0.0799818,,,,
2.408920458,0.0931257,0.0795744,,,,
2.409920425,0.128116,0.0794704,,,,
2.410920392,0.161928,0.0804771,,,,
2.411920359,0.117631,0.0811649,,,,
2.412920326,0.0274665,0.080304,,,,
2.413920293,-0.0552863,0.0797139,,,,
2.41492026,-0.0311598,0.0794821,,,,
2.415920227,0.113746,0.0803936,,,,
2.416920194,0.222778,0.0824014,,,,
2.417920161,0.18248,0.084223,,,,
2.418920128,0.0296512,0.0842945,,,,
2.419920095,-0.0824009,0.0848665,,,,
2.420920062,-0.0528651,0.0843871,,,,
2.421920029,0.0144169,0.0833256,,,,
2.422919996,0.00787607,0.0822071,,,,
2.423919963,-0.0392462,0.0814477,,,,
2.42491993,-0.0603206,0.0814448,,,,
2.425919897,-0.0430946,0.0815474,,,,
2.426919864,-0.00369805,0.0805712,,,,
2.427919831,0.0464966,0.0795545,,,,
2.428919798,0.0444132,0.079092,,,,
2.429919765,0.013543,0.0790564,,,,
2.430919732,0.0889308,0.0799426,,,,
2.431919699,0.137813,0.0811236,,,,
2.432919666,0.034695,0.0807437,,,,
2.433919633,0.0373715,0.0808523,,,,
2.4349196,0.200975,0.0814854,,,,
2.435919567,0.259754,0.0819875,,,,
2.436919534,0.161724,0.0823802,,,,
2.437919501,0.0669426,0.0828054,,,,
2.438919468,0.0538006,0.0832159,,,,
2.439919435,0.0576134,0.0834266,,,,
2.440919402,0.0680274,0.0836621,,,,
2.441919369,0.129655,0.0845663,,,,
2.442919336,0.158298,0.0844609,,,,
2.443919303,0.100309,0.0838107,,,,
2.44491927,0.0424909,0.0837608,,,,
2.445919237,0.0302247,0.0837469,,,,
2.446919204,0.035303,0.0830727,,,,
2.447919171,0.0213869,0.0823502,,,,
2.448919138,0.0056973,0.0820585,,,,
2.449919105,0.0619543,0.0824786,,,,
2.450919072,0.158382,0.0835186,,,,
2.451919038,0.189562,0.0845357,,,,
2.452919005,0.132612,0.0851037,,,,
2.453918972,0.0552694,0.0851065,,,,
2.454918939,0.0255998,0.0847469,,,,
2.455918906,-0.0347169,0.0841647,,,,
2.456918873,-0.16605,0.0845759,,,,
2.45791884,-0.174479,0.0854509,,,,
2.458918807,0.00990283,0.0855074,,,,
2.459918774,0.185953,0.0870174,,,,
2.460918741,0.227096,0.0892151,,,,
2.461918708,0.163111,0.0900727,,,,
2.462918675,0.0473576,0.0888527,,,,
2.463918642,-0.0479437,0.0871681,,,,
2.464918609,-0.071593,0.0864174,,,,
2.465918576,-0.0494069,0.0862971,,,,
2.466918543,-0.025605,0.0855012,,,,
2.46791851,-0.00697451,0.0837942,,,,
2.468918477,0.00813414,0.0830247,,,,
2.469918444,0.025068,0.0824897,,,,
2.470918411,0.0643431,0.0820626,,,,
2.471918378,0.131383,0.083038,,,,
2.472918345,0.179416,0.0844019,,,,
2.473918312,0.128994,0.0848346,,,,
2.474918279,0.0154877,0.0845584,,,,
2.475918246,-0.0037564,0.0845373,,,,
2.476918213,0.0810867,0.0853156,,,,
2.47791818,0.140135,0.0862853,,,,
2.478918147,0.15647,0.0871479,,,,
2.479918114,0.127287,0.088296,,,,
2.480918081,0.0322762,0.088293,,,,
2.481918048,-0.0255597,0.0879216,,,,
2.482918015,0.0259978,0.0869597,,,,
2.483917982,0.167098,0.0870513,,,,
2.484917949,0.282178,0.0882314,,,,
2.485917916,0.206508,0.0887389,,,,
2.486917883,0.0410351,0.0880834,,,,
2.48791785,0.0196211,0.0877733,,,,
2.488917817,0.0932837,0.0883391,,,,
2.489917784,0.0568532,0.0880881,,,,
2.490917751,-0.0559052,0.0867976,,,,
2.491917718,-0.0516668,0.0848724,,,,
2.492917685,0.0295596,0.0834638,,,,
2.493917652,0.0416983,0.083044,,,,
2.494917619,0.0128832,0.081983,,,,
2.495917586,-0.00432624,0.0808038,,,,
2.496917553,-0.0046238,0.0804773,,,,
2.49791752,0.0372558,0.0795481,,,,
2.498917487,0.0789185,0.0796974,,,,
2.499917454,0.0331018,0.0798097,,,,
2.500917421,-0.0344,0.0800622,,,,
2.501917388,0.00794493,0.0792356,,,,
2.502917355,0.0756931,0.0787433,,,,
2.503917322,0.068424,0.0787399,,,,
2.504917289,0.106971,0.0797799,,,,
2.505917255,0.180898,0.0814666,,,,
2.506917222,0.158509,0.0820894,,,,
2.507917189,0.137435,0.0822851,,,,
2.508917156,0.157808,0.0829319,,,,
2.509917123,0.129188,0.0829426,,,,
2.51091709,0.117349,0.0824968,,,,
2.511917057,0.111975,0.0824402,,,,
2.512917024,0.038547,0.082551,,,,
2.513916991,-0.0147933,0.0821461,,,,
2.514916958,-0.0184813,0.0820193,,,,
2.515916925,0.0187624,0.0810695,,,,
2.516916892,0.0990286,0.079832,,,,
2.517916859,0.110403,0.0791112,,,,
2.518916826,0.0492618,0.0793073,,,,
2.519916793,0.00190435,0.0785024,,,,
2.52091676,-0.0266952,0.0782407,,,,
2.521916727,-0.0107778,0.0782043,,,,
2.522916694,0.00825743,0.0782081,,,,
2.523916661,-0.0557368,0.078373,,,,
2.524916628,-0.0909409,0.0786792,,,,
2.525916595,0.0317628,0.0785659,,,,
2.526916562,0.16441,0.080173,,,,
2.527916529,0.141083,0.0811189,,,,
2.528916496,0.0583972,0.0812587,,,,
2.529916463,0.0462723,0.081586,,,,
2.53091643,0.0970516,0.0816672,,,,
2.531916397,0.141452,0.0817036,,,,
2.532916364,0.124182,0.0825985,,,,
2.533916331,0.0700189,0.0829249,,,,
2.534916298,0.0569952,0.0814851,,,,
2.535916265,0.120618,0.0800938,,,,
2.536916232,0.185273,0.0803293,,,,
2.537916199,0.183137,0.0814912,,,,
2.538916166,0.1757,0.0827102,,,,
2.539916133,0.193769,0.0840718,,,,
2.5409161,0.188441,0.0852759,,,,
2.541916067,0.137044,0.0853498,,,,
2.542916034,0.0634364,0.0844012,,,,
2.543916001,0.0408802,0.0838069,,,,
2.544915968,0.0672511,0.0840545,,,,
2.545915935,0.0643824,0.0843961,,,,
2.546915902,0.0708995,0.084752,,,,
2.547915869,0.127376,0.0858119,,,,
2.548915836,0.143125,0.0871862,,,,
2.549915803,0.0638237,0.0872049,,,,
2.55091577,-0.0461847,0.0860829,,,,
2.551915737,-0.0841066,0.0850284,,,,
2.552915704,-0.00669794,0.0837692,,,,
2.553915671,0.0937024,0.0841536,,,,
2.554915638,0.0683583,0.0845811,,,,
2.555915605,-0.0663991,0.084898,,,,
2.556915572,-0.127592,0.0845134,,,,
2.557915539,-0.0390857,0.0831594,,,,
2.558915506,0.0981959,0.0840424,,,,
2.559915472,0.167819,0.083861,,,,
2.560915439,0.0975169,0.0825653,,,,
2.561915406,-0.0578019,0.0815122,,,,
2.562915373,-0.107181,0.0821104,,,,
2.56391534,-0.000690375,0.0816379,,,,
2.564915307,0.114351,0.0820654,,,,
2.565915274,0.128256,0.0828539,,,,
2.566915241,0.062851,0.0832264,,,,
2.567915208,-0.010259,0.0832592,,,,
2.568915175,-0.0733901,0.0839118,,,,
2.569915142,-0.0867462,0.0845286,,,,
2.570915109,-0.0336547,0.0842217,,,,
2.571915076,-0.0181541,0.0830894,,,,
2.572915043,-0.024453,0.0815398,,,,
2.57391501,0.0203523,0.0804534,,,,
2.574914977,0.0606011,0.0809045,,,,
2.575914944,0.0981966,0.0818489,,,,
2.576914911,0.105001,0.0820881,,,,
2.577914878,0.0131123,0.0808178,,,,
2.578914845,-0.0184634,0.0794378,,,,
2.579914812,0.114816,0.079313,,,,
2.580914779,0.228647,0.0812768,,,,
2.581914746,0.20164,0.0830376,,,,
2.582914713,0.123487,0.0840125,,,,
2.58391468,0.0872362,0.0832138,,,,
2.584914647,0.0900815,0.0812929,,,,
2.585914614,0.101328,0.0802411,,,,
2.586914581,0.10736,0.0809043,,,,
2.587914548,0.117034,0.0818785,,,,
2.588914515,0.168233,0.082628,,,,
2.589914482,0.21453,0.0842047,,,,
2.590914449,0.139628,0.0850419,,,,
2.591914416,0.0320764,0.084846,,,,
2.592914383,0.0322438,0.0848729,,,,
2.59391435,0.0526722,0.0849826,,,,
2.594914317,0.0589184,0.085443,,,,
2.595914284,0.0914514,0.0863142,,,,
2.596914251,0.0751141,0.0870191,,,,
2.597914218,0.0184836,0.0868314,,,,
2.598914185,-0.0376396,0.0864186,,,,
2.599914152,-0.0986632,0.0870742,,,,
2.600914119,-0.061971,0.0873499,,,,
2.601914086,0.0480106,0.0877506,,,,
2.602914053,0.0839628,0.0878333,,,,
2.60391402,0.0929159,0.0880782,,,,
2.604913987,0.109118,0.0880997,,,,
2.605913954,0.082829,0.087119,,,,
2.606913921,0.0859058,0.086393,,,,
2.607913888,0.145506,0.0864737,,,,
2.608913855,0.161931,0.0865149,,,,
2.609913822,0.102321,0.0862462,,,,
2.610913789,0.0466487,0.0855392,,,,
2.611913756,0.0437574,0.084857,,,,
2.612913723,0.0427699,0.0848993,,,,
2.613913689,0.0241109,0.0849924,,,,
2.614913656,0.0496958,0.0853046,,,,
2.615913623,0.143202,0.086549,,,,
2.61691359,0.240451,0.0879632,,,,
2.617913557,0.270971,0.0895689,,,,
2.618913524,0.203561,0.0911119,,,,
2.619913491,0.045644,0.0915493,,,,
2.620913458,-0.0849218,0.0921315,,,,
2.621913425,-0.0687982,0.0927118,,,,
2.622913392,0.0322813,0.092952,,,,
2.623913359,0.108089,0.0934755,,,,
2.624913326,0.113781,0.0937039,,,,
2.625913293,0.0383847,0.0937701,,,,
2.62691326,-0.031718,0.0924432,,,,
2.627913227,-0.024468,0.0912771,,,,
2.628913194,-0.0127184,0.0908203,,,,
2.629913161,-0.0124621,0.0904822,,,,
2.630913128,0.033406,0.0898457,,,,
2.631913095,0.0895824,0.089327,,,,
2.632913062,0.113476,0.08922,,,,
2.633913029,0.107187,0.0895916,,,,
2.634912996,0.0599836,0.0896215,,,,
2.635912963,-0.0102398,0.0885177,,,,
2.63691293,-0.0499602,0.0871646,,,,
2.637912897,-0.0426958,0.0857602,,,,
2.638912864,-0.0065956,0.0840692,,,,
2.639912831,0.0574981,0.0827065,,,,
2.640912798,0.141241,0.0822345,,,,
2.641912765,0.172187,0.0825859,,,,
2.642912732,0.106897,0.0830205,,,,
2.643912699,0.024796,0.0828596,,,,
2.644912666,0.0150053,0.0823372,,,,
2.645912633,0.0652564,0.0823459,,,,
2.6469126,0.0891388,0.0825283,,,,
2.647912567,0.0470992,0.0817255,,,,
2.648912534,-0.0205602,0.0804999,,,,
2.649912501,-0.0858339,0.08072,,,,
2.650912468,-0.0876218,0.0811344,,,,
2.651912435,0.0273533,0.0805668,,,,
2.652912402,0.13257,0.0818256,,,,
2.653912369,0.110576,0.0819943,,,,
2.654912336,0.0600157,0.0819109,,,,
2.655912303,0.0805693,0.0820526,,,,
2.65691227,0.112054,0.0818972,,,,
2.657912237,0.0875397,0.0823817,,,,
2.658912204,0.0264539,0.0816643,,,,
2.659912171,-0.0130065,0.0801162,,,,
2.660912138,0.0277903,0.0794189,,,,
2.661912105,0.104851,0.0798894,,,,
2.662912072,0.143538,0.080253,,,,
2.663912039,0.185355,0.0820996,,,,
2.664912006,0.204482,0.0830009,,,,
2.665911973,0.112648,0.0828449,,,,
2.66691194,0.00557255,0.0822721,,,,
2.667911906,-0.00655105,0.082235,,,,
2.668911873,0.0296991,0.0817981,,,,
2.66991184,0.0909341,0.08184,,,,
2.670911807,0.138651,0.0828899,,,,
2.671911774,0.0885109,0.0835935,,,,
2.672911741,0.0339712,0.0836887,,,,
2.673911708,0.057459,0.0840597,,,,
2.674911675,0.0479738,0.0839335,,,,
2.675911642,0.0136032,0.0830875,,,,
2.676911609,0.0493724,0.0825313,,,,
2.677911576,0.0712287,0.0831124,,,,
2.678911543,0.0216312,0.0831441,,,,
2.67991151,0.00572776,0.0820532,,,,
2.680911477,0.042383,0.0801906,,,,
2.681911444,0.053032,0.0787045,,,,
2.682911411,0.05177,0.0779873,,,,
2.683911378,0.0900995,0.078016,,,,
2.684911345,0.139827,0.0785134,,,,
2.685911312,0.14674,0.0789675,,,,
2.686911279,0.124772,0.0791416,,,,
2.687911246,0.123382,0.0792051,,,,
2.688911213,0.129049,0.0788133,,,,
2.68991118,0.0934016,0.077602,,,,
2.690911147,0.0532449,0.0767382,,,,
2.691911114,0.038051,0.0767979,,,,
2.692911081,-0.0190725,0.0766662,,,,
2.693911048,-0.0410603,0.0765501,,,,
2.694911015,0.0935141,0.076896,,,,
2.695910982,0.20621,0.0780436,,,,
2.696910949,0.129888,0.0785914,,,,
2.697910916,0.0168491,0.078575,,,,
2.698910883,0.0232519,0.0784311,,,,
2.69991085,0.103898,0.0784835,,,,
2.700910817,0.144203,0.0793058,,,,
2.701910784,0.104581,0.0798715,,,,
2.702910751,0.0504645,0.0795365,,,,
2.703910718,0.004611,0.0786535,,,,
2.704910685,-0.0632682,0.078195,,,,
2.705910652,-0.0708958,0.0780757,,,,
2.706910619,0.0359244,0.0775758,,,,
2.707910586,0.137349,0.0774943,,,,
2.708910553,0.135132,0.0772263,,,,
2.70991052,0.0650311,0.0768534,,,,
2.710910487,0.0107677,0.0764946,,,,
2.711910454,0.0105242,0.0761622,,,,
2.712910421,0.0591567,0.0763261,,,,
2.713910388,0.122451,0.0773095,,,,
2.714910355,0.142588,0.0782384,,,,
2.715910322,0.107164,0.0778781,,,,
2.716910289,0.0151373,0.0756249,,,,
2.717910256,-0.0833031,0.0737482,,,,
2.718910223,-0.0695849,0.0724085,,,,
2.71991019,0.012096,0.072073,,,,
2.720910157,0.0699652,0.0719234,,,,
2.721910123,0.154556,0.072781,,,,
2.72291009,0.192627,0.0743845,,,,
2.723910057,0.0803897,0.0741075,,,,
2.724910024,-0.0103573,0.0730732,,,,
2.725909991,0.0535109,0.0732245,,,,
2.726909958,0.150308,0.0744104,,,,
2.727909925,0.174226,0.075908,,,,
2.728909892,0.126913,0.0770499,,,,
2.729909859,0.022773,0.077153,,,,
2.730909826,-0.0764889,0.0775839,,,,
2.731909793,-0.0664945,0.077353,,,,
2.73290976,0.0320843,0.0765391,,,,
2.733909727,0.0933941,0.0764011,,,,
2.734909694,0.0972541,0.0767738,,,,
2.735909661,0.099289,0.0776643,,,,
2.736909628,0.0960702,0.0781254,,,,
2.737909595,0.0901514,0.0786,,,,
2.738909562,0.118953,0.0797236,,,,
2.739909529,0.16076,0.0807562,,,,
2.740909496,0.182775,0.0811715,,,,
2.741909463,0.178324,0.0812329,,,,
2.74290943,0.111869,0.0812826,,,,
2.743909397,0.0155247,0.0811899,,,,
2.744909364,-0.0342989,0.0813828,,,,
2.745909331,-0.0661372,0.0813917,,,,
2.746909298,-0.0845179,0.0813454,,,,
2.747909265,-0.0307728,0.0811822,,,,
2.748909232,0.0686327,0.0816629,,,,
2.749909199,0.155732,0.0823619,,,,
2.750909166,0.163239,0.0831181,,,,
2.751909133,0.0557636,0.0834022,,,,
2.7529091,-0.0415845,0.0824923,,,,
2.753909067,-0.0295161,0.0816817,,,,
2.754909034,0.0286639,0.0813682,,,,
2.755909001,0.068368,0.0812462,,,,
2.756908968,0.0547652,0.0806733,,,,
2.757908935,-0.003468,0.0798326,,,,
2.758908902,-0.0283205,0.0798512,,,,
2.759908869,0.0118376,0.0798395,,,,
2.760908836,0.0693379,0.080255,,,,
2.761908803,0.0857004,0.0800635,,,,
2.76290877,0.0824261,0.0794524,,,,
2.763908737,0.121768,0.0788165,,,,
2.764908704,0.161719,0.0783889,,,,
2.765908671,0.129858,0.078561,,,,
2.766908638,0.0652162,0.0791574,,,,
2.767908605,0.0249202,0.0793411,,,,
2.768908572,0.00122479,0.0790564,,,,
2.769908539,0.0186067,0.0783331,,,,
2.770908506,0.0638282,0.0775849,,,,
2.771908473,0.0459125,0.0771589,,,,
2.77290844,0.00561614,0.0768753,,,,
2.773908407,0.0361345,0.0766621,,,,
2.774908374,0.0919934,0.0771023,,,,
2.77590834,0.106092,0.0780272,,,,
2.776908307,0.0970467,0.0785039,,,,
2.777908274,0.113931,0.0789309,,,,
2.778908241,0.153798,0.0802526,,,,
2.779908208,0.152316,0.0817185,,,,
2.780908175,0.0885356,0.08218,,,,
2.781908142,0.0552661,0.0822024,,,,
2.782908109,0.10002,0.0826849,,,,
2.783908076,0.120878,0.0829926,,,,
2.784908043,0.0614264,0.0822086,,,,
2.78590801,-0.00413999,0.0807826,,,,
2.786907977,-0.0158196,0.0796931,,,,
2.787907944,4.83E-05,0.0784598,,,,
2.788907911,0.0133364,0.0773027,,,,
2.789907878,0.0593424,0.0769621,,,,
2.790907845,0.122829,0.0776579,,,,
2.791907812,0.12157,0.0784931,,,,
2.792907779,0.0808685,0.0791111,,,,
2.793907746,0.0695526,0.079396,,,,
2.794907713,0.0755596,0.0792164,,,,
2.79590768,0.0815392,0.0779697,,,,
2.796907647,0.0963937,0.0776348,,,,
2.797907614,0.125687,0.0787232,,,,
2.798907581,0.142669,0.0799173,,,,
2.799907548,0.113955,0.0800179,,,,
2.800907515,0.0856824,0.0794327,,,,
2.801907482,0.117788,0.0795648,,,,
2.802907449,0.165207,0.0807122,,,,
2.803907416,0.161103,0.0822771,,,,
2.804907383,0.116004,0.0828045,,,,
2.80590735,0.058644,0.082682,,,,
2.806907317,0.00107322,0.0823334,,,,
2.807907284,-0.0159404,0.0811194,,,,
2.808907251,0.0324735,0.0800928,,,,
2.809907218,0.0619761,0.0800622,,,,
2.810907185,0.00480537,0.0800026,,,,
2.811907152,-0.0324619,0.080222,,,,
2.812907119,0.0206306,0.0798367,,,,
2.813907086,0.0691062,0.0793033,,,,
2.814907053,0.0572883,0.0784503,,,,
2.81590702,-0.000139671,0.07738,,,,
2.816906987,-0.0364552,0.0775932,,,,
2.817906954,0.0271702,0.0770319,,,,
2.818906921,0.102674,0.0773628,,,,
2.819906888,0.0928139,0.07817,,,,
2.820906855,0.0617786,0.0780881,,,,
2.821906822,0.056766,0.0771102,,,,
2.822906789,0.0710909,0.0758948,,,,
2.823906756,0.112561,0.0762165,,,,
2.824906723,0.171492,0.0778279,,,,
2.82590669,0.198705,0.0792798,,,,
2.826906657,0.130113,0.0790779,,,,
2.827906624,0.00942276,0.0774298,,,,
2.828906591,-0.0193498,0.0763542,,,,
2.829906557,0.0678145,0.0768046,,,,
2.830906524,0.138627,0.077426,,,,
2.831906491,0.109221,0.0778533,,,,
2.832906458,0.0470958,0.0780034,,,,
2.833906425,0.0108196,0.0771777,,,,
2.834906392,-0.0309796,0.0765149,,,,
2.835906359,-0.0468867,0.0759909,,,,
2.836906326,-0.0115324,0.0751455,,,,
2.837906293,0.00817026,0.0743257,,,,
2.83890626,0.0297724,0.0734339,,,,
2.839906227,0.0758686,0.072585,,,,
2.840906194,0.0586089,0.0713433,,,,
2.841906161,-0.0147551,0.0697076,,,,
2.842906128,-0.0376115,0.0689651,,,,
2.843906095,-0.0155923,0.0689657,,,,
2.844906062,-0.0110143,0.0687329,,,,
2.845906029,0.00321709,0.0681037,,,,
2.846905996,0.0480876,0.0677394,,,,
2.847905963,0.078642,0.0682181,,,,
2.84890593,0.0884177,0.0684159,,,,
2.849905897,0.11768,0.0680354,,,,
2.850905864,0.151951,0.0679225,,,,
2.851905831,0.146402,0.0688289,,,,
2.852905798,0.148077,0.0698938,,,,
2.853905765,0.178309,0.0713818,,,,
2.854905732,0.165202,0.0727471,,,,
2.855905699,0.128715,0.0733506,,,,
2.856905666,0.114337,0.0739463,,,,
2.857905633,0.101683,0.0749285,,,,
2.8589056,0.0994875,0.0756402,,,,
2.859905567,0.0960013,0.0764818,,,,
2.860905534,0.0820829,0.0766092,,,,
2.861905501,0.110705,0.0768593,,,,
2.862905468,0.144854,0.0774836,,,,
2.863905435,0.109949,0.0773654,,,,
2.864905402,0.087411,0.0766223,,,,
2.865905369,0.102763,0.0763514,,,,
2.866905336,0.0326049,0.0760252,,,,
2.867905303,-0.0579665,0.0763557,,,,
2.86890527,-0.012401,0.0764675,,,,
2.869905237,0.0745511,0.0770269,,,,
2.870905204,0.0498166,0.0768868,,,,
2.871905171,-0.022356,0.0766512,,,,
2.872905138,-0.0245314,0.0768404,,,,
2.873905105,0.0219472,0.0766985,,,,
2.874905072,0.0840004,0.0766186,,,,
2.875905039,0.149551,0.0770532,,,,
2.876905006,0.138144,0.0774641,,,,
2.877904973,0.0324227,0.0766491,,,,
2.87890494,-0.0555418,0.0756665,,,,
2.879904907,-0.0319936,0.0744633,,,,
2.880904874,0.0737565,0.0743155,,,,
2.881904841,0.16714,0.0754342,,,,
2.882904808,0.181687,0.0762509,,,,
2.883904774,0.121148,0.0762536,,,,
2.884904741,0.0778823,0.0764181,,,,
2.885904708,0.0899642,0.0772764,,,,
2.886904675,0.0667493,0.0777857,,,,
2.887904642,-0.00737348,0.0778589,,,,
2.888904609,-0.0315295,0.0780409,,,,
2.889904576,0.0340797,0.0777882,,,,
2.890904543,0.125087,0.0778108,,,,
2.89190451,0.149288,0.078088,,,,
2.892904477,0.0789878,0.0780692,,,,
2.893904444,0.0135909,0.0775096,,,,
2.894904411,0.0451303,0.0772053,,,,
2.895904378,0.0895701,0.0772856,,,,
2.896904345,0.0380335,0.076702,,,,
2.897904312,-0.0307259,0.0757524,,,,
2.898904279,0.0116641,0.0744423,,,,
2.899904246,0.109863,0.0744014,,,,
2.900904213,0.128038,0.074825,,,,
2.90190418,0.0650807,0.0742979,,,,
2.902904147,0.0141855,0.0727877,,,,
2.903904114,0.014642,0.071323,,,,
2.904904081,0.0375584,0.0705386,,,,
2.905904048,0.0773247,0.0707254,,,,
2.906904015,0.124336,0.071958,,,,
2.907903982,0.114862,0.0729472,,,,
2.908903949,0.048054,0.073103,,,,
2.909903916,0.0145925,0.0726292,,,,
2.910903883,0.0563288,0.0731444,,,,
2.91190385,0.0970913,0.0737907,,,,
2.912903817,0.067887,0.0742633,,,,
2.913903784,0.02032,0.0737754,,,,
2.914903751,0.0197599,0.0734002,,,,
2.915903718,0.0461775,0.0738605,,,,
2.916903685,0.0649286,0.0741453,,,,
2.917903652,0.0874555,0.0747481,,,,
2.918903619,0.116066,0.074882,,,,
2.919903586,0.12283,0.0751822,,,,
2.920903553,0.110107,0.0756655,,,,
2.92190352,0.113529,0.0762331,,,,
2.922903487,0.139774,0.0769199,,,,
2.923903454,0.136904,0.0771634,,,,
2.924903421,0.0739161,0.0761876,,,,
2.925903388,0.0328664,0.0745292,,,,
2.926903355,0.111449,0.0743426,,,,
2.927903322,0.214613,0.0763945,,,,
2.928903289,0.151813,0.0777191,,,,
2.929903256,-0.00777772,0.0771188,,,,
2.930903223,-0.043592,0.0761684,,,,
2.93190319,0.00417296,0.0751179,,,,
2.932903157,-0.0402201,0.0750492,,,,
2.933903124,-0.108739,0.0760284,,,,
2.934903091,-0.0114803,0.0758334,,,,
2.935903058,0.148513,0.0768496,,,,
2.936903024,0.120239,0.0779367,,,,
2.937902991,-0.00055466,0.0778605,,,,
2.938902958,-0.0179163,0.077742,,,,
2.939902925,-0.0351721,0.077335,,,,
2.940902892,-0.0904072,0.077653,,,,
2.941902859,-0.0741606,0.0782471,,,,
2.942902826,-0.0462328,0.0783333,,,,
2.943902793,-0.0102991,0.0782803,,,,
2.94490276,0.105314,0.0792233,,,,
2.945902727,0.158748,0.0807787,,,,
2.946902694,0.0936033,0.0812338,,,,
2.947902661,0.080093,0.0812483,,,,
2.948902628,0.143347,0.0817976,,,,
2.949902595,0.185439,0.0824752,,,,
2.950902562,0.201389,0.0829696,,,,
2.951902529,0.169963,0.0832052,,,,
2.952902496,0.0578345,0.0823028,,,,
2.953902463,-0.0243906,0.0807636,,,,
2.95490243,0.0115625,0.0792272,,,,
2.955902397,0.0798586,0.0787386,,,,
2.956902364,0.116313,0.0787584,,,,
2.957902331,0.120104,0.0789426,,,,
2.958902298,0.0889191,0.0788369,,,,
2.959902265,0.0781844,0.0786587,,,,
2.960902232,0.085671,0.0786946,,,,
2.961902199,0.0523343,0.0781109,,,,
2.962902166,0.027712,0.0769395,,,,
2.963902133,0.0579301,0.0764193,,,,
2.9649021,0.0923533,0.0764687,,,,
2.965902067,0.0886728,0.0763278,,,,
2.966902034,0.0691711,0.0766935,,,,
2.967902001,0.078745,0.0769013,,,,
2.968901968,0.094815,0.0777254,,,,
2.969901935,0.0927032,0.0779069,,,,
2.970901902,0.122581,0.0786346,,,,
2.971901869,0.159919,0.0800102,,,,
2.972901836,0.129168,0.0810566,,,,
2.973901803,0.0771857,0.0816089,,,,
2.97490177,0.0949643,0.0817186,,,,
2.975901737,0.143517,0.0816583,,,,
2.976901704,0.108091,0.0813577,,,,
2.977901671,0.0685665,0.0817192,,,,
2.978901638,0.161648,0.0827802,,,,
2.979901605,0.225045,0.0847107,,,,
2.980901572,0.134142,0.0853146,,,,
2.981901539,0.0286152,0.0839293,,,,
2.982901506,-0.0332703,0.0824452,,,,
2.983901473,-0.045606,0.0816898,,,,
2.98490144,-0.00282641,0.0809392,,,,
2.985901407,-0.00589901,0.0800985,,,,
2.986901374,-0.023331,0.0796644,,,,
2.987901341,0.0342171,0.0799328,,,,
2.988901308,0.0871706,0.0804892,,,,
2.989901275,0.107661,0.081225,,,,
2.990901241,0.0995281,0.0809694,,,,
2.991901208,0.027181,0.0797484,,,,
2.992901175,0.00255474,0.078984,,,,
2.993901142,0.0542527,0.0793907,,,,
2.994901109,0.0188189,0.0791275,,,,
2.995901076,-0.0906984,0.0791388,,,,
2.996901043,-0.121825,0.0799767,,,,
2.99790101,-0.0566474,0.080236,,,,
2.998900977,0.0258074,0.0803774,,,,
2.999900944,0.0790803,0.0800696,,,,
3.000900911,0.10342,0.0798234,,,,
3.001900878,0.0977831,0.0801504,,,,
3.002900845,0.0835258,0.0808438,,,,
3.003900812,0.088269,0.0815801,,,,
3.004900779,0.0810864,0.0820154,,,,
3.005900746,0.0621576,0.0818637,,,,
3.006900713,0.0795649,0.081416,,,,
3.00790068,0.0814939,0.0810823,,,,
3.008900647,0.00506048,0.0806524,,,,
3.009900614,-0.0401262,0.0809077,,,,
3.010900581,0.0530446,0.0808748,,,,
3.011900548,0.167968,0.0815836,,,,
3.012900515,0.152864,0.0824334,,,,
3.013900482,0.0995538,0.0832257,,,,
3.014900449,0.163916,0.0846673,,,,
3.015900416,0.25417,0.0867472,,,,
3.016900383,0.210357,0.0882015,,,,
3.01790035,0.0829965,0.0881569,,,,
3.018900317,-0.00516929,0.0870479,,,,
3.019900284,-0.0781424,0.0866011,,,,
3.020900251,-0.159472,0.0870947,,,,
3.021900218,-0.107471,0.0870341,,,,
3.022900185,0.0728624,0.086365,,,,
3.023900152,0.151051,0.0865065,,,,
3.024900119,0.10248,0.0867921,,,,
3.025900086,0.0764489,0.0872279,,,,
3.026900053,0.0880291,0.0869937,,,,
3.02790002,0.0967313,0.0858149,,,,
3.028899987,0.1007,0.0853038,,,,
3.029899954,0.0777157,0.0860032,,,,
3.030899921,0.0208174,0.0857754,,,,
3.031899888,0.0120321,0.085854,,,,
3.032899855,0.0842051,0.0862939,,,,
3.033899822,0.104024,0.0862467,,,,
3.034899789,0.0468053,0.0866,,,,
3.035899756,0.0735851,0.0858507,,,,
3.036899723,0.155669,0.086205,,,,
3.03789969,0.137039,0.0875698,,,,
3.038899657,0.0741779,0.0881324,,,,
3.039899624,0.0544595,0.0883253,,,,
3.040899591,0.0407567,0.0878288,,,,
3.041899558,0.0214333,0.0873015,,,,
3.042899525,0.00833737,0.0869226,,,,
3.043899492,0.0184538,0.0870041,,,,
3.044899458,0.0560315,0.0865113,,,,
3.045899425,0.0782837,0.0857067,,,,
3.046899392,0.0716517,0.0854871,,,,
3.047899359,0.0607113,0.0852933,,,,
3.048899326,0.0520621,0.0843805,,,,
3.049899293,0.0386847,0.0829129,,,,
3.05089926,0.069846,0.0815975,,,,
3.051899227,0.165691,0.0815548,,,,
3.052899194,0.194004,0.0829165,,,,
3.053899161,0.114213,0.0838147,,,,
3.054899128,0.0443231,0.0841423,,,,
3.055899095,0.0318275,0.083662,,,,
3.056899062,0.101274,0.0835116,,,,
3.057899029,0.1849,0.0841596,,,,
3.058898996,0.151756,0.0847879,,,,
3.059898963,0.119944,0.0852055,,,,
3.06089893,0.150228,0.0858511,,,,
3.061898897,0.0719674,0.0860474,,,,
3.062898864,-0.0502183,0.0862725,,,,
3.063898831,-0.046436,0.0861576,,,,
3.064898798,0.0109616,0.0853436,,,,
3.065898765,0.0405186,0.0848621,,,,
3.066898732,0.0756912,0.0849273,,,,
3.067898699,0.116867,0.0853085,,,,
3.068898666,0.128286,0.0856432,,,,
3.069898633,0.0778345,0.0854945,,,,
3.0708986,0.00169133,0.0842856,,,,
3.071898567,0.0226439,0.0829129,,,,
3.072898534,0.10744,0.0826956,,,,
3.073898501,0.0948197,0.082872,,,,
3.074898468,0.038042,0.0823027,,,,
3.075898435,0.0416792,0.0812843,,,,
3.076898402,0.0222132,0.0804256,,,,
3.077898369,-0.000881753,0.0797487,,,,
3.078898336,0.0996436,0.0791287,,,,
3.079898303,0.192958,0.0788078,,,,
3.08089827,0.121161,0.078678,,,,
3.081898237,0.0537796,0.0789296,,,,
3.082898204,0.104308,0.07964,,,,
3.083898171,0.127485,0.0804588,,,,
3.084898138,0.117232,0.0816029,,,,
3.085898105,0.170945,0.0832533,,,,
3.086898072,0.177235,0.0847924,,,,
3.087898039,0.0730916,0.0851811,,,,
3.088898006,0.0231066,0.0845405,,,,
3.089897973,0.0439977,0.0839038,,,,
3.09089794,0.0259851,0.0831684,,,,
3.091897907,0.00878993,0.0829845,,,,
3.092897874,0.0294206,0.0832532,,,,
3.093897841,0.0519547,0.0832302,,,,
3.094897808,0.0407693,0.0834497,,,,
3.095897775,0.00070973,0.0825498,,,,
3.096897742,-0.00582081,0.0813898,,,,
3.097897709,0.0360355,0.0811836,,,,
3.098897675,0.0901877,0.0818274,,,,
3.099897642,0.127648,0.0823131,,,,
3.100897609,0.143247,0.0827114,,,,
3.101897576,0.100828,0.0827418,,,,
3.102897543,-0.0354346,0.0822609,,,,
3.10389751,-0.0948282,0.0823265,,,,
3.104897477,0.0317322,0.081833,,,,
3.105897444,0.114083,0.0823522,,,,
3.106897411,0.0655667,0.0822123,,,,
3.107897378,0.0615689,0.082013,,,,
3.108897345,0.089514,0.0828575,,,,
3.109897312,0.0537615,0.0829939,,,,
3.110897279,0.0341774,0.0828052,,,,
3.111897246,0.0656844,0.0817824,,,,
3.112897213,0.0629305,0.0808831,,,,
3.11389718,0.0335709,0.0802232,,,,
3.114897147,0.00871617,0.0786712,,,,
3.115897114,-0.0387134,0.0765167,,,,
3.116897081,-0.0422638,0.0748357,,,,
3.117897048,0.0371034,0.0743768,,,,
3.118897015,0.07614,0.0750865,,,,
3.119896982,0.0463039,0.0747681,,,,
3.120896949,0.0750038,0.0739234,,,,
3.121896916,0.14838,0.0743325,,,,
3.122896883,0.125607,0.07486,,,,
3.12389685,0.0500369,0.0738498,,,,
3.124896817,0.0529912,0.0733549,,,,
3.125896784,0.0639418,0.0732299,,,,
3.126896751,0.0126425,0.072476,,,,
3.127896718,0.0148542,0.0716572,,,,
3.128896685,0.0854723,0.071505,,,,
3.129896652,0.100922,0.071737,,,,
3.130896619,0.0523256,0.0720521,,,,
3.131896586,0.0073025,0.0720048,,,,
3.132896553,0.0105134,0.0712679,,,,
3.13389652,0.0484092,0.0707117,,,,
3.134896487,0.059847,0.0708422,,,,
3.135896454,0.0642683,0.070749,,,,
3.136896421,0.0730798,0.0699231,,,,
3.137896388,0.043283,0.0689855,,,,
3.138896355,0.033351,0.0685773,,,,
3.139896322,0.092324,0.0689559,,,,
3.140896289,0.160394,0.0701523,,,,
3.141896256,0.162132,0.0715593,,,,
3.142896223,0.0858658,0.0723346,,,,
3.14389619,0.0606273,0.0727563,,,,
3.144896157,0.156492,0.0737609,,,,
3.145896124,0.216035,0.0751384,,,,
3.146896091,0.160147,0.0760234,,,,
3.147896058,0.10878,0.0765041,,,,
3.148896025,0.108448,0.0770679,,,,
3.149895992,0.0829998,0.0775111,,,,
3.150895959,0.0468477,0.0772811,,,,
3.151895926,0.0794656,0.0764188,,,,
3.152895892,0.115885,0.0756376,,,,
3.153895859,0.0743833,0.0752393,,,,
3.154895826,0.0234184,0.0750303,,,,
3.155895793,0.0226402,0.0749384,,,,
3.15689576,0.0541437,0.0744671,,,,
3.157895727,0.0669301,0.0732874,,,,
3.158895694,0.00732898,0.0718432,,,,
3.159895661,-0.0385013,0.0710287,,,,
3.160895628,0.0473326,0.0699998,,,,
3.161895595,0.15032,0.0707833,,,,
3.162895562,0.135816,0.0716393,,,,
3.163895529,0.0703463,0.0718784,,,,
3.164895496,0.0330135,0.0720989,,,,
3.165895463,0.033023,0.0720239,,,,
3.16689543,0.0590139,0.0718572,,,,
3.167895397,0.0909416,0.0715979,,,,
3.168895364,0.11816,0.0714966,,,,
3.169895331,0.11743,0.0718926,,,,
3.170895298,0.0534879,0.0724106,,,,
3.171895265,-0.040976,0.0725939,,,,
3.172895232,-0.0302216,0.0718217,,,,
3.173895199,0.0971912,0.0718454,,,,
3.174895166,0.161087,0.0730759,,,,
3.175895133,0.133518,0.0739943,,,,
3.1768951,0.103684,0.074809,,,,
3.177895067,0.0534182,0.0753343,,,,
3.178895034,0.01505,0.0744884,,,,
3.179895001,0.0225131,0.0727839,,,,
3.180894968,0.00472663,0.0716196,,,,
3.181894935,-0.00889313,0.0711707,,,,
3.182894902,0.0348858,0.0704765,,,,
3.183894869,0.0484701,0.0696864,,,,
3.184894836,0.0090402,0.0686045,,,,
3.185894803,0.0165059,0.0670601,,,,
3.18689477,0.0835834,0.0661235,,,,
3.187894737,0.130951,0.0667021,,,,
3.188894704,0.129366,0.0677647,,,,
3.189894671,0.0955458,0.0682802,,,,
3.190894638,0.0327502,0.0683479,,,,
3.191894605,-0.0232578,0.0684925,,,,
3.192894572,-0.0135899,0.0683342,,,,
3.193894539,0.0379292,0.068194,,,,
3.194894506,0.0685676,0.068472,,,,
3.195894473,0.0906203,0.0693711,,,,
3.19689444,0.115272,0.0704656,,,,
3.197894407,0.0844482,0.0709497,,,,
3.198894374,0.0400006,0.0704478,,,,
3.199894341,0.0803197,0.0699745,,,,
3.200894308,0.120208,0.0697442,,,,
3.201894275,0.0862813,0.0695987,,,,
3.202894242,0.0802786,0.0700471,,,,
3.203894209,0.108615,0.070185,,,,
3.204894176,0.0655434,0.0705231,,,,
3.205894143,-0.0162486,0.0695448,,,,
3.206894109,-0.0272138,0.0691612,,,,
3.207894076,0.0286206,0.0688318,,,,
3.208894043,0.0852968,0.0687896,,,,
3.20989401,0.104208,0.069294,,,,
3.210893977,0.108959,0.0700419,,,,
3.211893944,0.151838,0.0709034,,,,
3.212893911,0.16012,0.0718753,,,,
3.213893878,0.0738548,0.0722781,,,,
3.214893845,0.0184722,0.0723757,,,,
3.215893812,0.0402408,0.072391,,,,
3.216893779,0.0684698,0.072653,,,,
3.217893746,0.108693,0.0733689,,,,
3.218893713,0.141247,0.07402,,,,
3.21989368,0.115474,0.0747117,,,,
3.220893647,0.0541743,0.0745034,,,,
3.221893614,0.0203902,0.0732235,,,,
3.222893581,0.0638112,0.0726055,,,,
3.223893548,0.114533,0.0732505,,,,
3.224893515,0.0885051,0.0736057,,,,
3.225893482,0.0720821,0.0736871,,,,
3.226893449,0.100119,0.0745618,,,,
3.227893416,0.0751836,0.0751651,,,,
3.228893383,0.00836698,0.0743941,,,,
3.22989335,-0.00819097,0.0734667,,,,
3.230893317,0.0407823,0.0733513,,,,
3.231893284,0.0811954,0.0740902,,,,
3.232893251,0.0554432,0.0745395,,,,
3.233893218,0.0215906,0.0742714,,,,
3.234893185,0.0348838,0.0740217,,,,
3.235893152,0.0563144,0.0739422,,,,
3.236893119,0.0676565,0.073888,,,,
3.237893086,0.0701406,0.0741565,,,,
3.238893053,0.0442777,0.0742658,,,,
3.23989302,0.0317233,0.0736598,,,,
3.240892987,0.0828014,0.0728839,,,,
3.241892954,0.153373,0.0727963,,,,
3.242892921,0.156063,0.0734982,,,,
3.243892888,0.0777454,0.0736694,,,,
3.244892855,0.00426752,0.0721472,,,,
3.245892822,-0.0188384,0.0701752,,,,
3.246892789,-0.00824369,0.0686562,,,,
3.247892756,0.0376606,0.067945,,,,
3.248892723,0.0643602,0.0675041,,,,
3.24989269,0.0478805,0.0671529,,,,
3.250892657,0.0819772,0.0675042,,,,
3.251892624,0.151733,0.0682269,,,,
3.252892591,0.146533,0.0685334,,,,
3.253892558,0.0675391,0.0684649,,,,
3.254892525,0.00249889,0.0682557,,,,
3.255892492,0.00965778,0.0681259,,,,
3.256892459,0.055357,0.068138,,,,
3.257892426,0.0837493,0.0683062,,,,
3.258892393,0.0701518,0.0689345,,,,
3.25989236,0.0312591,0.068862,,,,
3.260892326,0.0393826,0.0687825,,,,
3.261892293,0.100645,0.0682858,,,,
3.26289226,0.16167,0.0685443,,,,
3.263892227,0.18795,0.0697204,,,,
3.264892194,0.143137,0.0708216,,,,
3.265892161,0.075197,0.0712433,,,,
3.266892128,0.0297956,0.0709512,,,,
3.267892095,-0.055654,0.0705983,,,,
3.268892062,-0.138527,0.070802,,,,
3.269892029,-0.109404,0.0707217,,,,
3.270891996,-0.00336049,0.0702204,,,,
3.271891963,0.0962915,0.0707736,,,,
3.27289193,0.138918,0.0718606,,,,
3.273891897,0.104073,0.0719294,,,,
3.274891864,0.0459025,0.0707775,,,,
3.275891831,0.025559,0.0696979,,,,
3.276891798,0.0373219,0.0690343,,,,
3.277891765,0.0490494,0.0689906,,,,
3.278891732,0.0446851,0.069287,,,,
3.279891699,0.0356631,0.0694185,,,,
3.280891666,0.0457014,0.0698282,,,,
3.281891633,0.0748184,0.0704875,,,,
3.2828916,0.0905229,0.0710438,,,,
3.283891567,0.0797715,0.0713569,,,,
3.284891534,0.0986732,0.0722532,,,,
3.285891501,0.148973,0.0735779,,,,
3.286891468,0.138008,0.0741221,,,,
3.287891435,0.106011,0.0738727,,,,
3.288891402,0.148288,0.0740619,,,,
3.289891369,0.18403,0.0749468,,,,
3.290891336,0.139206,0.0760113,,,,
3.291891303,0.0472736,0.0762515,,,,
3.29289127,-0.0489891,0.0766055,,,,
3.293891237,-0.0456536,0.0766827,,,,
3.294891204,0.0684934,0.076682,,,,
3.295891171,0.10338,0.0768096,,,,
3.296891138,0.0288884,0.0759457,,,,
3.297891105,0.0251805,0.0753531,,,,
3.298891072,0.0979103,0.0759322,,,,
3.299891039,0.113134,0.0762603,,,,
3.300891006,0.0754957,0.0758132,,,,
3.301890973,0.0750577,0.0757009,,,,
3.30289094,0.132353,0.0762217,,,,
3.303890907,0.198494,0.0771205,,,,
3.304890874,0.215956,0.0786246,,,,
3.305890841,0.163712,0.0800992,,,,
3.306890808,0.064228,0.0804694,,,,
3.307890775,-0.028438,0.0804676,,,,
3.308890742,-0.0652031,0.0802666,,,,
3.309890709,-0.0519885,0.0797444,,,,
3.310890676,-0.0157954,0.0788128,,,,
3.311890643,0.0356573,0.077651,,,,
3.31289061,0.0983102,0.0770329,,,,
3.313890577,0.168786,0.0779822,,,,
3.314890543,0.195086,0.0797483,,,,
3.31589051,0.10615,0.0804074,,,,
3.316890477,-0.031824,0.080041,,,,
3.317890444,-0.0891942,0.079846,,,,
3.318890411,-0.10077,0.0794412,,,,
3.319890378,-0.130748,0.079594,,,,
3.320890345,-0.0700531,0.0797527,,,,
3.321890312,0.0837181,0.080386,,,,
3.322890279,0.129438,0.0810423,,,,
3.323890246,0.0711059,0.080608,,,,
3.324890213,0.0976991,0.0807,,,,
3.32589018,0.166849,0.0816476,,,,
3.326890147,0.129947,0.0819459,,,,
3.327890114,0.0602275,0.0817963,,,,
3.328890081,0.0522551,0.0822352,,,,
3.329890048,0.053692,0.0826902,,,,
3.330890015,0.0450039,0.0827325,,,,
3.331889982,0.0401941,0.0823224,,,,
3.332889949,0.0209872,0.0819779,,,,
3.333889916,0.0286662,0.0820486,,,,
3.334889883,0.108761,0.0827874,,,,
3.33588985,0.156174,0.083786,,,,
3.336889817,0.0708888,0.0838183,,,,
3.337889784,-0.0275915,0.0833928,,,,
3.338889751,-0.0265426,0.0832155,,,,
3.339889718,0.0288192,0.0831864,,,,
3.340889685,0.09415,0.0832999,,,,
3.341889652,0.13016,0.0830678,,,,
3.342889619,0.124666,0.0827538,,,,
3.343889586,0.10896,0.083066,,,,
3.344889553,0.091124,0.0839345,,,,
3.34588952,0.111044,0.0848566,,,,
3.346889487,0.148489,0.086259,,,,
3.347889454,0.108591,0.0869683,,,,
3.348889421,0.0459202,0.0867839,,,,
3.349889388,0.0523713,0.0868289,,,,
3.350889355,0.0807857,0.0868169,,,,
3.351889322,0.0874976,0.0861746,,,,
3.352889289,0.0888411,0.0855977,,,,
3.353889256,0.0844295,0.0857666,,,,
3.354889223,0.056481,0.0863064,,,,
3.35588919,0.0334389,0.0865442,,,,
3.356889157,0.0557849,0.0865485,,,,
3.357889124,0.0632977,0.086344,,,,
3.358889091,0.0159953,0.0858024,,,,
3.359889058,-0.00146156,0.0855044,,,,
3.360889025,0.0439512,0.0855501,,,,
3.361888992,0.110981,0.0856535,,,,
3.362888959,0.15504,0.0855872,,,,
3.363888926,0.108229,0.08479,,,,
3.364888893,0.0239721,0.0835983,,,,
3.36588886,0.0377485,0.0832238,,,,
3.366888827,0.10828,0.0840087,,,,
3.367888794,0.112883,0.084581,,,,
3.36888876,0.0352152,0.0835478,,,,
3.369888727,-0.0530413,0.0829842,,,,
3.370888694,-0.0529449,0.0834801,,,,
3.371888661,0.036467,0.0828818,,,,
